0.00457764	
0.0317383	
0.0540161	
0.067749	
0.0787354	
0.0976563	
0.0933838	
0.0857544	
0.093689	
0.108337	
0.110474	
0.0927734	
0.0656128	
0.039978	
0.0140381	
-0.0222778	
-0.0628662	
-0.0946045	
-0.12146	
-0.132751	
-0.133057	
-0.148926	
-0.167236	
-0.195313	
-0.217896	
-0.220947	
-0.205994	
-0.177002	
-0.164185	
-0.175781	
-0.1828	
-0.177002	
-0.166626	
-0.167847	
-0.181885	
-0.19165	
-0.193481	
-0.178223	
-0.173645	
-0.175171	
-0.189514	
-0.194092	
-0.198364	
-0.188599	
-0.180359	
-0.158691	
-0.140991	
-0.134277	
-0.134277	
-0.149231	
-0.160522	
-0.17334	
-0.171509	
-0.169983	
-0.177917	
-0.200195	
-0.228271	
-0.215454	
-0.170288	
-0.115967	
-0.0958252	
-0.10376	
-0.121765	
-0.127258	
-0.141602	
-0.160828	
-0.161743	
-0.148315	
-0.122681	
-0.106201	
-0.112915	
-0.12207	
-0.128174	
-0.12207	
-0.122375	
-0.137329	
-0.153198	
-0.158386	
-0.15625	
-0.155334	
-0.155334	
-0.160828	
-0.168762	
-0.164795	
-0.152588	
-0.153809	
-0.179138	
-0.209961	
-0.218811	
-0.160217	
-0.0302124	
0.173035	
0.424805	
0.632629	
0.699463	
0.542908	
0.213623	
-0.12146	
-0.312195	
-0.335388	
-0.280762	
-0.224304	
-0.207825	
-0.213928	
-0.223389	
-0.221252	
-0.187073	
-0.162964	
-0.149231	
-0.14801	
-0.148926	
-0.148926	
-0.15564	
-0.154419	
-0.149231	
-0.150452	
-0.156555	
-0.160522	
-0.146484	
-0.127258	
-0.119934	
-0.120544	
-0.129089	
-0.114441	
-0.0973511	
-0.0802612	
-0.0820923	
-0.085144	
-0.065918	
-0.0335693	
-0.0131226	
-0.00488281	
-0.0100708	
0.0164795	
0.0686646	
0.103149	
0.102234	
0.085144	
0.0912476	
0.103455	
0.088501	
0.050354	
0.0323486	
0.0540161	
0.0701904	
0.0460815	
-0.00366211	
-0.0509644	
-0.0894165	
-0.106201	
-0.122375	
-0.116882	
-0.117493	
-0.130615	
-0.15686	
-0.188904	
-0.19989	
-0.191956	
-0.159607	
-0.145264	
-0.150452	
-0.176697	
-0.185547	
-0.184021	
-0.174255	
-0.169067	
-0.154419	
-0.126648	
-0.111084	
-0.124207	
-0.144958	
-0.146179	
-0.128784	
-0.113831	
-0.115967	
-0.124207	
-0.135193	
-0.13855	
-0.118713	
-0.0921631	
-0.0787354	
-0.088501	
-0.108337	
-0.117188	
-0.117493	
-0.109558	
-0.106201	
-0.107117	
-0.111389	
-0.114746	
-0.11261	
-0.106506	
-0.0927734	
-0.083313	
-0.0961304	
-0.104065	
-0.106201	
-0.0869751	
-0.085144	
-0.101624	
-0.109558	
-0.0927734	
-0.0759888	
-0.083313	
-0.108032	
-0.114136	
-0.0927734	
-0.0665283	
-0.0463867	
-0.0546265	
-0.0622559	
-0.0592041	
-0.050354	
-0.0335693	
-0.0305176	
-0.0531006	
-0.0839233	
-0.116272	
-0.137939	
-0.128784	
-0.119324	
-0.112	
-0.112915	
-0.111084	
-0.107117	
-0.116882	
-0.129089	
-0.126648	
-0.10498	
-0.0823975	
-0.03479	
0.0927734	
0.323486	
0.582275	
0.740967	
0.690002	
0.419617	
0.0717163	
-0.178528	
-0.27771	
-0.261841	
-0.209656	
-0.162048	
-0.128174	
-0.119934	
-0.128479	
-0.127563	
-0.117493	
-0.101624	
-0.0787354	
-0.0604248	
-0.0515747	
-0.055542	
-0.0585938	
-0.057373	
-0.0552368	
-0.0595093	
-0.071106	
-0.0747681	
-0.0701904	
-0.050354	
-0.0296021	
-0.0167847	
-0.0143433	
-0.0115967	
-0.00244141	
0.0152588	
0.0396729	
0.0570679	
0.0622559	
0.0427246	
0.0350952	
0.0518799	
0.0985718	
0.138855	
0.163574	
0.180664	
0.187378	
0.195007	
0.18219	
0.175781	
0.179138	
0.168457	
0.1474	
0.113831	
0.0909424	
0.0744629	
0.0482178	
-0.000915527	
-0.0411987	
-0.0616455	
-0.0631714	
-0.0689697	
-0.0924683	
-0.124207	
-0.143738	
-0.131531	
-0.102234	
-0.107117	
-0.137634	
-0.158691	
-0.137634	
-0.0900269	
-0.0799561	
-0.098877	
-0.117798	
-0.115967	
-0.098877	
-0.09552	
-0.111389	
-0.142212	
-0.158081	
-0.151367	
-0.129395	
-0.121155	
-0.119324	
-0.103149	
-0.0805664	
-0.0686646	
-0.0933838	
-0.120239	
-0.126343	
-0.101929	
-0.0765991	
-0.0564575	
-0.0524902	
-0.0634766	
-0.0772095	
-0.085144	
-0.083313	
-0.0823975	
-0.0796509	
-0.0817871	
-0.0793457	
-0.0808716	
-0.0765991	
-0.0631714	
-0.0640869	
-0.0701904	
-0.088501	
-0.085144	
-0.0787354	
-0.0665283	
-0.0601196	
-0.0616455	
-0.0646973	
-0.0750732	
-0.0799561	
-0.0796509	
-0.0735474	
-0.0476074	
-0.0180054	
0.00915527	
0.00396729	
-0.0198364	
-0.0445557	
-0.050354	
-0.0527954	
-0.0640869	
-0.09552	
-0.123596	
-0.1297	
-0.125122	
-0.113525	
-0.105591	
-0.0927734	
-0.083313	
-0.0924683	
-0.0973511	
-0.0958252	
-0.0769043	
-0.039978	
0.0512695	
0.238647	
0.485229	
0.669556	
0.665894	
0.439758	
0.100098	
-0.1828	
-0.323181	
-0.310974	
-0.23468	
-0.151367	
-0.0912476	
-0.0836182	
-0.108337	
-0.132141	
-0.117188	
-0.0842285	
-0.0485229	
-0.0424194	
-0.0485229	
-0.0588989	
-0.055542	
-0.0518799	
-0.0378418	
-0.0396729	
-0.0363159	
-0.0238037	
-0.0192261	
-0.0164795	
-0.022583	
-0.0335693	
-0.0296021	
-0.0286865	
-0.0140381	
0.00488281	
0.0247192	
0.0311279	
0.0415039	
0.0561523	
0.0772095	
0.100403	
0.119019	
0.1474	
0.172119	
0.197144	
0.219116	
0.220337	
0.184631	
0.137329	
0.12207	
0.152893	
0.165405	
0.133057	
0.0717163	
0.0344849	
0.0372314	
0.0216675	
-0.00823975	
-0.0360107	
-0.0592041	
-0.0872803	
-0.118103	
-0.146179	
-0.140991	
-0.127563	
-0.137024	
-0.144958	
-0.150452	
-0.13855	
-0.129395	
-0.137939	
-0.144043	
-0.126953	
-0.100403	
-0.0881958	
-0.0982666	
-0.128784	
-0.150146	
-0.150452	
-0.155334	
-0.140076	
-0.13031	
-0.108337	
-0.0994873	
-0.111084	
-0.118408	
-0.0985718	
-0.0680542	
-0.0610352	
-0.083313	
-0.104675	
-0.100098	
-0.071106	
-0.0430298	
-0.043335	
-0.0524902	
-0.0772095	
-0.104065	
-0.122681	
-0.135193	
-0.125122	
-0.111694	
-0.111389	
-0.112	
-0.108643	
-0.0952148	
-0.0814819	
-0.0753784	
-0.0717163	
-0.0732422	
-0.0726318	
-0.062561	
-0.0686646	
-0.0857544	
-0.103455	
-0.098877	
-0.072937	
-0.0756836	
-0.0982666	
-0.118408	
-0.10437	
-0.0714111	
-0.0402832	
-0.032959	
-0.038147	
-0.0405884	
-0.0448608	
-0.0354004	
-0.0424194	
-0.0546265	
-0.0848389	
-0.110168	
-0.133057	
-0.144958	
-0.141602	
-0.127869	
-0.111084	
-0.105591	
-0.102234	
-0.111084	
-0.119629	
-0.125122	
-0.122681	
-0.110779	
-0.0949097	
-0.0302124	
0.123596	
0.366821	
0.599976	
0.688477	
0.545654	
0.227356	
-0.0982666	
-0.284119	
-0.290527	
-0.215759	
-0.142517	
-0.123901	
-0.131531	
-0.150757	
-0.154114	
-0.133667	
-0.117493	
-0.111694	
-0.0997925	
-0.0817871	
-0.0802612	
-0.100098	
-0.127258	
-0.125122	
-0.111084	
-0.0942993	
-0.0790405	
-0.071106	
-0.0747681	
-0.0741577	
-0.0640869	
-0.0448608	
-0.0369263	
-0.0372314	
-0.0393677	
-0.0430298	
-0.043335	
-0.0372314	
-0.00762939	
0.0302124	
0.0494385	
0.0411987	
0.0360107	
0.055542	
0.10437	
0.139465	
0.1297	
0.120544	
0.11261	
0.130615	
0.145874	
0.149841	
0.137024	
0.098877	
0.0509644	
0.0146484	
0.00762939	
-0.00366211	
-0.0360107	
-0.0918579	
-0.124207	
-0.140686	
-0.13916	
-0.150452	
-0.174866	
-0.177002	
-0.144043	
-0.106506	
-0.090332	
-0.127258	
-0.167542	
-0.174561	
-0.158386	
-0.13916	
-0.140381	
-0.145264	
-0.14679	
-0.137634	
-0.136108	
-0.126648	
-0.132446	
-0.142822	
-0.15564	
-0.15564	
-0.12085	
-0.0918579	
-0.0808716	
-0.101624	
-0.130005	
-0.138855	
-0.144348	
-0.148315	
-0.152893	
-0.137024	
-0.108032	
-0.0820923	
-0.0888062	
-0.105591	
-0.114746	
-0.111389	
-0.107117	
-0.108643	
-0.10376	
-0.0933838	
-0.110779	
-0.130005	
-0.140381	
-0.132141	
-0.11261	
-0.113831	
-0.100708	
-0.0942993	
-0.0967407	
-0.0997925	
-0.115356	
-0.110779	
-0.111694	
-0.102234	
-0.0927734	
-0.0976563	
-0.112915	
-0.126343	
-0.127563	
-0.118408	
-0.113525	
-0.118408	
-0.12207	
-0.12207	
-0.112305	
-0.098877	
-0.0769043	
-0.0775146	
-0.0827026	
-0.110779	
-0.128174	
-0.129395	
-0.119629	
-0.0918579	
-0.071106	
-0.0753784	
-0.093689	
-0.110779	
-0.111084	
-0.093689	
-0.0646973	
-0.0415039	
-0.0387573	
-0.0653076	
-0.0982666	
-0.098877	
-0.0900269	
-0.0759888	
-0.0912476	
-0.117493	
-0.133362	
-0.139465	
-0.123901	
-0.112915	
-0.0976563	
-0.0942993	
-0.110474	
-0.137939	
-0.1651	
-0.173035	
-0.158997	
-0.120239	
-0.0158691	
0.162659	
0.410767	
0.611572	
0.660706	
0.498657	
0.2005	
-0.0735474	
-0.229797	
-0.248718	
-0.218201	
-0.188293	
-0.183411	
-0.174255	
-0.159302	
-0.137939	
-0.144653	
-0.150146	
-0.147705	
-0.126953	
-0.108337	
-0.104675	
-0.107422	
-0.109558	
-0.100403	
-0.10437	
-0.107422	
-0.102539	
-0.0863647	
-0.0656128	
-0.0622559	
-0.0756836	
-0.0845337	
-0.0744629	
-0.06073	
-0.0415039	
-0.0305176	
-0.0344849	
-0.0302124	
-0.012207	
0.0183105	
0.0323486	
0.0222778	
0.0262451	
0.0631714	
0.104675	
0.120544	
0.132446	
0.135193	
0.14679	
0.140076	
0.137024	
0.129089	
0.133972	
0.127869	
0.111694	
0.0689697	
-0.000915527	
-0.0576782	
-0.0845337	
-0.0976563	
-0.111694	
-0.115051	
-0.126648	
-0.149841	
-0.184326	
-0.195007	
-0.157471	
-0.107727	
-0.0961304	
-0.124207	
-0.158691	
-0.174561	
-0.16449	
-0.131226	
-0.113525	
-0.119019	
-0.140686	
-0.16449	
-0.169983	
-0.159607	
-0.140686	
-0.111084	
-0.0933838	
-0.0921631	
-0.102539	
-0.10376	
-0.0985718	
-0.093689	
-0.114441	
-0.133057	
-0.128784	
-0.0997925	
-0.0726318	
-0.072937	
-0.0778198	
-0.0790405	
-0.0872803	
-0.10437	
-0.123291	
-0.119934	
-0.124512	
-0.136108	
-0.135803	
-0.106506	
-0.0790405	
-0.0726318	
-0.0909424	
-0.0967407	
-0.0979614	
-0.0933838	
-0.105591	
-0.10437	
-0.0906372	
-0.0744629	
-0.0805664	
-0.101013	
-0.114746	
-0.0946045	
-0.0640869	
-0.0521851	
-0.0717163	
-0.0921631	
-0.088501	
-0.0671387	
-0.0540161	
-0.078125	
-0.107727	
-0.12207	
-0.114441	
-0.0897217	
-0.0708008	
-0.078125	
-0.098877	
-0.114441	
-0.101624	
-0.0823975	
-0.0787354	
-0.0802612	
-0.078125	
-0.0747681	
-0.085144	
-0.101318	
-0.109558	
-0.101318	
-0.101013	
-0.10376	
-0.0952148	
-0.0805664	
-0.0704956	
-0.0704956	
-0.0915527	
-0.101013	
-0.104065	
-0.101013	
-0.0836182	
-0.0762939	
-0.0631714	
-0.0540161	
-0.0561523	
-0.0671387	
-0.0726318	
-0.0585938	
-0.0253296	
-0.00579834	
-0.015564	
-0.0299072	
-0.0411987	
-0.055542	
-0.0741577	
-0.110779	
-0.141296	
-0.14679	
-0.135193	
-0.111389	
-0.118713	
-0.140381	
-0.142822	
-0.120544	
-0.101318	
-0.106506	
-0.120544	
-0.0830078	
0.0579834	
0.279541	
0.510559	
0.619812	
0.537415	
0.283813	
-0.0262451	
-0.26001	
-0.342102	
-0.317383	
-0.246887	
-0.20752	
-0.194702	
-0.187683	
-0.176697	
-0.161438	
-0.147705	
-0.167847	
-0.191956	
-0.204163	
-0.185242	
-0.143127	
-0.115051	
-0.108032	
-0.104065	
-0.10437	
-0.0964355	
-0.0863647	
-0.0866699	
-0.0869751	
-0.100098	
-0.108032	
-0.116577	
-0.101013	
-0.0775146	
-0.0531006	
-0.0341797	
-0.0280762	
-0.0244141	
-0.0177002	
-0.00183105	
0.0241089	
0.0543213	
0.0390625	
0.0131226	
-0.109863	
-0.144348	
-0.162964	
-0.161743	
-0.142212	
-0.119324	
-0.100403	
-0.0878906	
-0.0875854	
-0.0958252	
-0.107422	
-0.115662	
-0.106201	
-0.0891113	
-0.0741577	
-0.0686646	
-0.0769043	
-0.0793457	
-0.0698853	
-0.0415039	
-0.0131226	
0.00793457	
0.00152588	
-0.00488281	
-0.00457764	
-0.00579834	
0.00274658	
0.0180054	
0.0506592	
0.0878906	
0.110779	
0.116272	
0.1297	
0.151978	
0.183411	
0.205994	
0.209656	
0.201416	
0.196533	
0.200195	
0.20874	
0.201416	
0.176086	
0.13092	
0.0949097	
0.0549316	
0.00335693	
-0.0375366	
-0.067749	
-0.0723267	
-0.0827026	
-0.103149	
-0.128174	
-0.135498	
-0.120544	
-0.10437	
-0.117798	
-0.148926	
-0.15625	
-0.118408	
-0.0872803	
-0.0872803	
-0.124512	
-0.138855	
-0.123596	
-0.10376	
-0.0976563	
-0.10437	
-0.107117	
-0.0949097	
-0.0872803	
-0.0814819	
-0.0732422	
-0.0823975	
-0.0906372	
-0.114441	
-0.116272	
-0.0961304	
-0.0857544	
-0.0817871	
-0.0845337	
-0.0866699	
-0.0857544	
-0.088501	
-0.102844	
-0.100403	
-0.0860596	
-0.0686646	
-0.0665283	
-0.0848389	
-0.102234	
-0.11261	
-0.10437	
-0.0982666	
-0.0900269	
-0.0872803	
-0.0854492	
-0.0805664	
-0.0769043	
-0.0708008	
-0.0765991	
-0.078125	
-0.0802612	
-0.0741577	
-0.0650024	
-0.0500488	
-0.0408936	
-0.0335693	
-0.0305176	
-0.027771	
-0.012207	
-0.000305176	
-0.00427246	
-0.0415039	
-0.0881958	
-0.122986	
-0.116272	
-0.100403	
-0.0897217	
-0.0976563	
-0.109863	
-0.110779	
-0.0939941	
-0.0762939	
-0.0704956	
-0.0814819	
-0.0720215	
0.0170898	
0.207825	
0.482788	
0.720215	
0.788269	
0.606689	
0.246582	
-0.103455	
-0.30304	
-0.326843	
-0.26062	
-0.192261	
-0.145264	
-0.112	
-0.0924683	
-0.085144	
-0.0860596	
-0.0796509	
-0.0686646	
-0.0704956	
-0.0787354	
-0.0662231	
-0.0521851	
-0.0427246	
-0.0396729	
-0.045166	
-0.0473022	
-0.0485229	
-0.0360107	
-0.0231934	
-0.0247192	
-0.027771	
-0.0152588	
0.0192261	
0.039978	
0.045166	
0.0341797	
0.0296021	
0.0244141	
0.0241089	
0.0405884	
0.0778198	
0.120239	
0.141296	
0.144958	
0.149536	
0.161438	
0.180664	
0.186462	
0.201416	
0.229797	
0.252075	
0.263672	
0.237122	
0.200195	
0.160522	
0.125427	
0.0915527	
0.0466919	
-0.000915527	
-0.0372314	
-0.0506592	
-0.0595093	
-0.0759888	
-0.102844	
-0.130615	
-0.133057	
-0.125122	
-0.102844	
-0.109863	
-0.133667	
-0.158997	
-0.169678	
-0.153503	
-0.136108	
-0.128784	
-0.125122	
-0.118408	
-0.115356	
-0.108032	
-0.108337	
-0.116577	
-0.111694	
-0.111694	
-0.104675	
-0.103455	
-0.11322	
-0.115356	
-0.113831	
-0.0994873	
-0.0964355	
-0.101624	
-0.108337	
-0.11261	
-0.0976563	
-0.0894165	
-0.0799561	
-0.0784302	
-0.0811768	
-0.083313	
-0.0897217	
-0.0924683	
-0.0909424	
-0.100098	
-0.10437	
-0.119324	
-0.110779	
-0.0918579	
-0.0674438	
-0.0552368	
-0.0622559	
-0.0698853	
-0.0665283	
-0.0527954	
-0.039978	
-0.0350952	
-0.0390625	
-0.0570679	
-0.0762939	
-0.088501	
-0.078125	
-0.0762939	
-0.0912476	
-0.112	
-0.118103	
-0.105286	
-0.0854492	
-0.0866699	
-0.0921631	
-0.0976563	
-0.0958252	
-0.105896	
-0.10437	
-0.0363159	
0.127563	
0.372009	
0.583191	
0.657349	
0.538025	
0.253601	
-0.0500488	
-0.272217	
-0.345154	
-0.31189	
-0.227661	
-0.141296	
-0.105896	
-0.105286	
-0.121765	
-0.116577	
-0.0961304	
-0.0775146	
-0.0814819	
-0.0976563	
-0.105591	
-0.09552	
-0.0738525	
-0.0506592	
-0.0491333	
-0.0506592	
-0.0463867	
-0.0421143	
-0.0369263	
-0.0427246	
-0.0473022	
-0.0396729	
-0.0213623	
-0.00183105	
-0.000915527	
-0.00518799	
-0.00488281	
0.00610352	
0.0320435	
0.0509644	
0.0689697	
0.0869751	
0.116577	
0.138855	
0.150146	
0.159302	
0.171204	
0.194397	
0.214844	
0.222168	
0.205078	
0.194702	
0.19104	
0.188293	
0.171509	
0.1297	
0.0747681	
0.0341797	
0.000610352	
-0.0335693	
-0.0671387	
-0.0933838	
-0.113525	
-0.123596	
-0.134888	
-0.14801	
-0.1651	
-0.16571	
-0.148315	
-0.134888	
-0.136108	
-0.151672	
-0.16571	
-0.154114	
-0.134277	
-0.117798	
-0.117798	
-0.140076	
-0.154724	
-0.134583	
-0.106812	
-0.10437	
-0.118103	
-0.126648	
-0.118103	
-0.115356	
-0.133972	
-0.13916	
-0.123596	
-0.0949097	
-0.0805664	
-0.0793457	
-0.0759888	
-0.0735474	
-0.0778198	
-0.0869751	
-0.0756836	
-0.0552368	
-0.0460815	
-0.0668335	
-0.105591	
-0.135498	
-0.127258	
-0.0994873	
-0.065918	
-0.0631714	
-0.0845337	
-0.101624	
-0.105591	
-0.0906372	
-0.0808716	
-0.0872803	
-0.0930786	
-0.0958252	
-0.0799561	
-0.0564575	
-0.0460815	
-0.0466919	
-0.0686646	
-0.0820923	
-0.0958252	
-0.0808716	
-0.0543213	
-0.0283813	
-0.0219727	
-0.0274658	
-0.0259399	
-0.012207	
-0.0149536	
-0.0469971	
-0.0775146	
-0.0933838	
-0.0894165	
-0.0765991	
-0.0817871	
-0.0909424	
-0.10437	
-0.111389	
-0.103149	
-0.0799561	
-0.0805664	
-0.104065	
-0.132446	
-0.12146	
-0.0268555	
0.145569	
0.397949	
0.635071	
0.744629	
0.630188	
0.329895	
0.000305176	
-0.21759	
-0.273132	
-0.224915	
-0.157776	
-0.120544	
-0.123291	
-0.132751	
-0.1474	
-0.137024	
-0.133667	
-0.124512	
-0.112305	
-0.0991821	
-0.0976563	
-0.111694	
-0.119324	
-0.105896	
-0.0787354	
-0.06073	
-0.062561	
-0.06073	
-0.0567627	
-0.0506592	
-0.0418091	
-0.0421143	
-0.0509644	
-0.0616455	
-0.0582886	
-0.0305176	
-0.00152588	
0.0204468	
0.0283813	
0.0390625	
0.0512695	
0.0680542	
0.0802612	
0.0952148	
0.112915	
0.134888	
0.148621	
0.163574	
0.183716	
0.196533	
0.200806	
0.193787	
0.195007	
0.182495	
0.163574	
0.128784	
0.101318	
0.071106	
0.0238037	
-0.0244141	
-0.0601196	
-0.090332	
-0.105286	
-0.119629	
-0.114136	
-0.109253	
-0.112915	
-0.117493	
-0.125732	
-0.116577	
-0.107727	
-0.109253	
-0.126038	
-0.142517	
-0.153503	
-0.146179	
-0.133972	
-0.124817	
-0.113525	
-0.0997925	
-0.0863647	
-0.0762939	
-0.0668335	
-0.0704956	
-0.0869751	
-0.114746	
-0.116272	
-0.100403	
-0.0830078	
-0.0866699	
-0.116577	
-0.123596	
-0.110168	
-0.0808716	
-0.0613403	
-0.0643921	
-0.0726318	
-0.0738525	
-0.0790405	
-0.0817871	
-0.0961304	
-0.108337	
-0.098877	
-0.0897217	
-0.0744629	
-0.0762939	
-0.0927734	
-0.0912476	
-0.0799561	
-0.0698853	
-0.0631714	
-0.0549316	
-0.0585938	
-0.0680542	
-0.0854492	
-0.093689	
-0.088501	
-0.0848389	
-0.0839233	
-0.0765991	
-0.0732422	
-0.0744629	
-0.0668335	
-0.0619507	
-0.0564575	
-0.0765991	
-0.0799561	
-0.0756836	
-0.0656128	
-0.065918	
-0.071106	
-0.0497437	
-0.0195313	
0.00549316	
0.0119019	
-0.000305176	
-0.0125122	
-0.0259399	
-0.0448608	
-0.0631714	
-0.0778198	
-0.083313	
-0.0933838	
-0.11322	
-0.12146	
-0.110168	
-0.0918579	
-0.0924683	
-0.0976563	
-0.0784302	
-0.055542	
-0.0558472	
-0.0616455	
-0.00701904	
0.167542	
0.423584	
0.657654	
0.751343	
0.641174	
0.354309	
0.0268555	
-0.195618	
-0.262146	
-0.224915	
-0.179138	
-0.161133	
-0.145874	
-0.1297	
-0.122375	
-0.120239	
-0.120239	
-0.101624	
-0.0799561	
-0.0683594	
-0.0842285	
-0.101929	
-0.117493	
-0.108337	
-0.0808716	
-0.0515747	
-0.0463867	
-0.0671387	
-0.0848389	
-0.0747681	
-0.0418091	
-0.0268555	
-0.0396729	
-0.0613403	
-0.0604248	
-0.0405884	
-0.0149536	
0.00701904	
0.0189209	
0.0418091	
0.0631714	
0.0875854	
0.103149	
0.0994873	
0.104675	
0.132751	
0.176392	
0.20874	
0.209351	
0.204163	
0.2005	
0.209961	
0.214539	
0.210876	
0.184937	
0.134277	
0.090332	
0.0601196	
0.0378418	
0.00823975	
-0.0375366	
-0.078125	
-0.108337	
-0.114136	
-0.112305	
-0.0991821	
-0.098877	
-0.122681	
-0.130615	
-0.151367	
-0.145874	
-0.143127	
-0.137634	
-0.127869	
-0.112915	
-0.111694	
-0.106812	
-0.117188	
-0.114746	
-0.10437	
-0.0897217	
-0.102844	
-0.12146	
-0.1297	
-0.109558	
-0.0799561	
-0.0775146	
-0.100708	
-0.122681	
-0.113831	
-0.0778198	
-0.0543213	
-0.0531006	
-0.0570679	
-0.0488281	
-0.045166	
-0.0592041	
-0.0796509	
-0.0817871	
-0.0720215	
-0.0500488	
-0.0219727	
-0.00366211	
0.00671387	
0.0180054	
0.0619507	
0.140686	
0.238647	
0.343628	
0.458374	
0.577393	
0.67688	
0.739746	
0.710449	
0.571289	
0.322876	
0.0213623	
-0.241699	
-0.392151	
-0.409241	
-0.348511	
-0.301514	
-0.283203	
-0.282898	
-0.263977	
-0.234985	
-0.211792	
-0.195007	
-0.191956	
-0.186768	
-0.177002	
-0.162964	
-0.152588	
-0.151367	
-0.14801	
-0.147095	
-0.144043	
-0.130005	
-0.116577	
-0.100708	
-0.0811768	
-0.0793457	
-0.0878906	
-0.0912476	
-0.085144	
-0.0411987	
-0.000915527	
-0.00549316	
-0.0280762	
-0.0631714	
-0.072937	
-0.0723267	
-0.0686646	
-0.0650024	
-0.0405884	
-0.0183105	
-0.00427246	
-0.00793457	
-0.0143433	
-0.00915527	
-0.00488281	
-0.0201416	
-0.0262451	
0.00244141	
0.0457764	
0.0643921	
0.0564575	
0.0488281	
0.0509644	
0.0338745	
-0.0158691	
-0.0695801	
-0.0811768	
-0.0708008	
-0.0671387	
-0.0802612	
-0.101013	
-0.111084	
-0.118103	
-0.13855	
-0.151367	
-0.154419	
-0.145874	
-0.134277	
-0.1297	
-0.125427	
-0.112	
-0.108948	
-0.106812	
-0.101929	
-0.0900269	
-0.0814819	
-0.0878906	
-0.102539	
-0.106506	
-0.0949097	
-0.0891113	
-0.0921631	
-0.105896	
-0.106506	
-0.0933838	
-0.0857544	
-0.0857544	
-0.0878906	
-0.0817871	
-0.0759888	
-0.0640869	
-0.0570679	
-0.0701904	
-0.0662231	
-0.0665283	
-0.0558472	
-0.0668335	
-0.0894165	
-0.102539	
-0.0891113	
-0.0772095	
-0.072937	
-0.0747681	
-0.0653076	
-0.0674438	
-0.0634766	
-0.0570679	
-0.0430298	
-0.0338745	
-0.0344849	
-0.0521851	
-0.057373	
-0.0588989	
-0.0576782	
-0.0570679	
-0.0567627	
-0.0646973	
-0.0842285	
-0.0961304	
-0.0967407	
-0.0546265	
-0.0271606	
-0.022583	
-0.0305176	
-0.0369263	
-0.0247192	
-0.00701904	
-0.00305176	
-0.0231934	
-0.0588989	
-0.088501	
-0.0918579	
-0.0845337	
-0.0668335	
-0.0476074	
-0.0372314	
-0.0415039	
-0.0531006	
-0.0561523	
-0.0415039	
-0.0241089	
-0.0167847	
-0.0271606	
-0.0491333	
-0.0698853	
-0.0552368	
-0.0262451	
-0.00610352	
-0.0222778	
-0.0552368	
-0.0756836	
-0.0723267	
-0.043335	
-0.0244141	
-0.0128174	
-0.0222778	
-0.0320435	
-0.0561523	
-0.0592041	
-0.0527954	
-0.0296021	
-0.0183105	
-0.0308228	
-0.0415039	
-0.0469971	
-0.0494385	
-0.050354	
-0.0732422	
-0.0714111	
-0.0631714	
-0.0308228	
-0.0109863	
-0.0167847	
-0.0411987	
-0.0543213	
-0.0457764	
-0.0299072	
-0.0186157	
-0.0198364	
-0.0299072	
-0.0561523	
-0.0765991	
-0.0805664	
-0.0363159	
0.020752	
0.0326538	
-0.00518799	
-0.0613403	
-0.0695801	
-0.0341797	
0.0125122	
0.0274658	
0.015564	
0.00244141	
0.00732422	
0.0183105	
0.0161743	
-0.0088501	
-0.0222778	
-0.0149536	
-0.00518799	
-0.0177002	
-0.0457764	
-0.067749	
-0.0628662	
-0.0500488	
-0.039978	
-0.0411987	
-0.0598145	
-0.0720215	
-0.0201416	
0.118103	
0.343933	
0.586243	
0.719604	
0.682373	
0.447083	
0.138245	
-0.110474	
-0.213623	
-0.215759	
-0.178833	
-0.1474	
-0.111389	
-0.0769043	
-0.0604248	
-0.065918	
-0.0735474	
-0.0796509	
-0.0680542	
-0.062561	
-0.067749	
-0.0637817	
-0.0534058	
-0.0482178	
-0.055542	
-0.0585938	
-0.0473022	
-0.0247192	
-0.0219727	
-0.0241089	
-0.0241089	
-0.0134277	
-0.00335693	
-0.00671387	
-0.0134277	
-0.0128174	
0.00671387	
0.0323486	
0.0463867	
0.0454712	
0.0448608	
0.0546265	
0.0741577	
0.0942993	
0.118103	
0.135193	
0.152588	
0.175476	
0.196228	
0.223083	
0.223389	
0.223694	
0.214844	
0.215149	
0.222168	
0.227661	
0.232849	
0.209351	
0.168457	
0.123596	
0.0906372	
0.065918	
0.0320435	
-0.0198364	
-0.0552368	
-0.0708008	
-0.0747681	
-0.0839233	
-0.0976563	
-0.102539	
-0.09552	
-0.10437	
-0.108032	
-0.119324	
-0.117493	
-0.106201	
-0.0985718	
-0.0906372	
-0.102844	
-0.118713	
-0.114136	
-0.0942993	
-0.0793457	
-0.0845337	
-0.111389	
-0.117188	
-0.107422	
-0.0930786	
-0.0854492	
-0.0765991	
-0.065918	
-0.0540161	
-0.0527954	
-0.0558472	
-0.0689697	
-0.0854492	
-0.088501	
-0.0845337	
-0.0756836	
-0.0820923	
-0.0823975	
-0.0820923	
-0.0714111	
-0.0735474	
-0.0695801	
-0.0747681	
-0.0802612	
-0.0921631	
-0.0915527	
-0.0906372	
-0.10437	
-0.116577	
-0.112305	
-0.0848389	
-0.0537109	
-0.0460815	
-0.0531006	
-0.0683594	
-0.0772095	
-0.0808716	
-0.0805664	
-0.0738525	
-0.0628662	
-0.0567627	
-0.0683594	
-0.0860596	
-0.0894165	
-0.0732422	
-0.0619507	
-0.0653076	
-0.0744629	
-0.0714111	
-0.0576782	
-0.0430298	
-0.0338745	
-0.0424194	
-0.0500488	
-0.0576782	
-0.0695801	
-0.065918	
-0.0393677	
-0.00823975	
0.0088501	
-0.00274658	
-0.00946045	
0.00335693	
0.0158691	
0.00366211	
-0.038147	
-0.0695801	
-0.0680542	
-0.0396729	
-0.0424194	
-0.0720215	
-0.111694	
-0.106506	
-0.0830078	
-0.0564575	
-0.0457764	
-0.0598145	
-0.0894165	
-0.117798	
-0.0762939	
0.0656128	
0.316772	
0.591431	
0.77301	
0.756836	
0.507202	
0.150146	
-0.150452	
-0.278015	
-0.257874	
-0.200806	
-0.159607	
-0.148621	
-0.128479	
-0.118408	
-0.102844	
-0.0866699	
-0.0759888	
-0.0823975	
-0.0997925	
-0.107727	
-0.0820923	
-0.0527954	
-0.0463867	
-0.0537109	
-0.0671387	
-0.0585938	
-0.0476074	
-0.0527954	
-0.0662231	
-0.0793457	
-0.0613403	
-0.0222778	
0.000305176	
-0.00549316	
-0.0308228	
-0.0286865	
-0.00579834	
0.0247192	
0.0418091	
0.0515747	
0.0732422	
0.0967407	
0.105591	
0.119629	
0.139465	
0.169678	
0.189209	
0.19165	
0.202026	
0.220947	
0.233459	
0.239563	
0.217896	
0.189514	
0.150452	
0.111389	
0.0808716	
0.0537109	
0.0219727	
-0.0201416	
-0.0701904	
-0.108643	
-0.12085	
-0.120544	
-0.131836	
-0.152283	
-0.162964	
-0.153198	
-0.152283	
-0.151978	
-0.170593	
-0.168762	
-0.152283	
-0.142517	
-0.143433	
-0.162354	
-0.182495	
-0.181274	
-0.161133	
-0.126343	
-0.10498	
-0.126648	
-0.170593	
-0.195923	
-0.187988	
-0.143433	
-0.12085	
-0.12146	
-0.132141	
-0.129395	
-0.108032	
-0.0946045	
-0.0863647	
-0.106506	
-0.125122	
-0.133667	
-0.132446	
-0.107117	
-0.0836182	
-0.0756836	
-0.0964355	
-0.132446	
-0.157471	
-0.145874	
-0.115662	
-0.106201	
-0.109253	
-0.108643	
-0.10376	
-0.10376	
-0.118713	
-0.120239	
-0.100708	
-0.0759888	
-0.0689697	
-0.0756836	
-0.0970459	
-0.120544	
-0.139465	
-0.123596	
-0.090332	
-0.0665283	
-0.0665283	
-0.0906372	
-0.0939941	
-0.0854492	
-0.0671387	
-0.0588989	
-0.0701904	
-0.0875854	
-0.0906372	
-0.0738525	
-0.0567627	
-0.0567627	
-0.0772095	
-0.0848389	
-0.108643	
-0.107727	
-0.104675	
-0.0790405	
-0.0631714	
-0.072937	
-0.0808716	
-0.0756836	
-0.065918	
-0.0515747	
-0.0469971	
-0.0363159	
-0.0390625	
-0.0402832	
-0.0311279	
-0.0134277	
0.00671387	
0.0119019	
0.00213623	
-0.0115967	
-0.0201416	
-0.0244141	
-0.0341797	
-0.0570679	
-0.072937	
-0.0750732	
-0.0750732	
-0.0820923	
-0.0918579	
-0.0869751	
-0.0674438	
-0.0527954	
-0.0509644	
-0.0753784	
-0.0973511	
-0.0869751	
0.0192261	
0.203857	
0.445862	
0.643005	
0.700684	
0.563049	
0.259705	
-0.0698853	
-0.272522	
-0.316772	
-0.256348	
-0.177612	
-0.122375	
-0.106506	
-0.107117	
-0.109863	
-0.100403	
-0.0906372	
-0.0863647	
-0.090332	
-0.0698853	
-0.0595093	
-0.0616455	
-0.0802612	
-0.093689	
-0.0891113	
-0.0726318	
-0.0509644	
-0.0320435	
-0.0299072	
-0.0357056	
-0.032959	
-0.0280762	
-0.0201416	
-0.0100708	
0.00427246	
0.0213623	
0.0268555	
0.0308228	
0.0283813	
0.0283813	
0.0369263	
0.0500488	
0.0811768	
0.112915	
0.126648	
0.143433	
0.1651	
0.187988	
0.204468	
0.19989	
0.199585	
0.215759	
0.230713	
0.232544	
0.207214	
0.18158	
0.149536	
0.106812	
0.0576782	
0.012207	
-0.0216675	
-0.0534058	
-0.0872803	
-0.115662	
-0.128784	
-0.13031	
-0.132751	
-0.129395	
-0.131226	
-0.134888	
-0.144348	
-0.162048	
-0.159302	
-0.160522	
-0.158081	
-0.14679	
-0.134277	
-0.116882	
-0.112915	
-0.126648	
-0.14679	
-0.151672	
-0.147095	
-0.140686	
-0.123291	
-0.114136	
-0.108643	
-0.131836	
-0.151672	
-0.139771	
-0.0939941	
-0.062561	
-0.0796509	
-0.122986	
-0.144348	
-0.133362	
-0.105286	
-0.0814819	
-0.0708008	
-0.0671387	
-0.071106	
-0.0845337	
-0.0967407	
-0.0927734	
-0.0823975	
-0.0683594	
-0.0848389	
-0.119629	
-0.138855	
-0.128174	
-0.0930786	
-0.0753784	
-0.0744629	
-0.0805664	
-0.0830078	
-0.083313	
-0.085144	
-0.0976563	
-0.0894165	
-0.0744629	
-0.0671387	
-0.0595093	
-0.0564575	
-0.0549316	
-0.0610352	
-0.0592041	
-0.0375366	
-0.0222778	
-0.0326538	
-0.0631714	
-0.0769043	
-0.0579834	
-0.00793457	
0.0430298	
0.0708008	
0.0457764	
-0.00732422	
-0.0491333	
-0.055542	
-0.0375366	
-0.0289917	
-0.0387573	
-0.0680542	
-0.0854492	
-0.0784302	
-0.0570679	
-0.0485229	
-0.0531006	
-0.0634766	
-0.055542	
-0.043335	
-0.0320435	
-0.0183105	
-0.0231934	
-0.0189209	
0.0436401	
0.203857	
0.45929	
0.681152	
0.745544	
0.576782	
0.249329	
-0.0790405	
-0.26123	
-0.275574	
-0.203247	
-0.13031	
-0.0924683	
-0.0698853	
-0.0598145	
-0.0619507	
-0.062561	
-0.0585938	
-0.0488281	
-0.038147	
-0.0296021	
-0.0109863	
0.0125122	
0.0192261	
0.00488281	
-0.012207	
-0.0247192	
-0.0119019	
0.0100708	
0.0390625	
0.0631714	
0.0793457	
0.0668335	
0.0473022	
0.0357056	
0.0549316	
0.0845337	
0.106201	
0.117798	
0.126648	
0.143738	
0.158081	
0.179138	
0.203552	
0.227051	
0.253601	
0.276489	
0.289917	
0.300903	
0.318298	
0.352173	
0.392456	
0.40741	
0.379944	
0.351868	
0.333862	
0.335999	
0.335999	
0.308533	
0.253296	
0.180054	
0.119934	
0.0912476	
0.0750732	
0.0369263	
0.00488281	
0.0112915	
0.055542	
0.0741577	
0.0564575	
0.0372314	
0.0494385	
0.0808716	
0.0997925	
0.098877	
0.0964355	
0.0915527	
0.0939941	
0.0888062	
0.0747681	
0.0811768	
0.0942993	
0.0997925	
0.0906372	
0.0912476	
0.12085	
0.159302	
0.177002	
0.177002	
0.174561	
0.172729	
0.163269	
0.15686	
0.162354	
0.171204	
0.168152	
0.166931	
0.185547	
0.210571	
0.230713	
0.202332	
0.188599	
0.193481	
0.220642	
0.247192	
0.256958	
0.249329	
0.241089	
0.238953	
0.247192	
0.25238	
0.258179	
0.25116	
0.255432	
0.270386	
0.283508	
0.296936	
0.305481	
0.315247	
0.312195	
0.306396	
0.303955	
0.314026	
0.336914	
0.329285	
0.321045	
0.303955	
0.296021	
0.300903	
0.320435	
0.352478	
0.378113	
0.385742	
0.371399	
0.353394	
0.349426	
0.368652	
0.375061	
0.366821	
0.357056	
0.359497	
0.377808	
0.389099	
0.383911	
0.374451	
0.367126	
0.386658	
0.426941	
0.464783	
0.46875	
0.44281	
0.41626	
0.410156	
0.415039	
0.406494	
0.387268	
0.355835	
0.35614	
0.362854	
0.372925	
0.38147	
0.374756	
0.369568	
0.358582	
0.353394	
0.362244	
0.364685	
0.362854	
0.421753	
0.58197	
0.85968	
1.12518	
1.23962	
1.13251	
0.839233	
0.506287	
0.257568	
0.151978	
0.15686	
0.230713	
0.293274	
0.343933	
0.349426	
0.339966	
0.348206	
0.361633	
0.368958	
0.348816	
0.326233	
0.324097	
0.329895	
0.3302	
0.328064	
0.339661	
0.359802	
0.379333	
0.367737	
0.352783	
0.354309	
0.367737	
0.388794	
0.390625	
0.385132	
0.387573	
0.407104	
0.441284	
0.445862	
0.427856	
0.409851	
0.421143	
0.460205	
0.478516	
0.490112	
0.496521	
0.517578	
0.542297	
0.580139	
0.610352	
0.631714	
0.627136	
0.609436	
0.608521	
0.621033	
0.611877	
0.581665	
0.526123	
0.466614	
0.419312	
0.378723	
0.350647	
0.325012	
0.299072	
0.273743	
0.250549	
0.224915	
0.187683	
0.168457	
0.17395	
0.19928	
0.214233	
0.213318	
0.188599	
0.159302	
0.151062	
0.169373	
0.194092	
0.207825	
0.203247	
0.194092	
0.184021	
0.167542	
0.143127	
0.13092	
0.131531	
0.140991	
0.161133	
0.184021	
0.185547	
0.174866	
0.161438	
0.15625	
0.162964	
0.178528	
0.193176	
0.20752	
0.197754	
0.181885	
0.170898	
0.162659	
0.148315	
0.133972	
0.13031	
0.133362	
0.135498	
0.121155	
0.109558	
0.11322	
0.126648	
0.135193	
0.123596	
0.13092	
0.157776	
0.184631	
0.170898	
0.127258	
0.0878906	
0.0900269	
0.107422	
0.113831	
0.112915	
0.120544	
0.140686	
0.144653	
0.137634	
0.106506	
0.0979614	
0.0985718	
0.115051	
0.13855	
0.146179	
0.134277	
0.118103	
0.110779	
0.105591	
0.106506	
0.114746	
0.132751	
0.134583	
0.105896	
0.0698853	
0.0762939	
0.117798	
0.148315	
0.125732	
0.0863647	
0.0796509	
0.103149	
0.137329	
0.150146	
0.151062	
0.148315	
0.144653	
0.147095	
0.157471	
0.163269	
0.155945	
0.141907	
0.133362	
0.136414	
0.129089	
0.101318	
0.0674438	
0.0561523	
0.0582886	
0.0775146	
0.0820923	
0.0790405	
0.0695801	
0.0592041	
0.071106	
0.0881958	
0.088501	
0.055542	
0.0305176	
0.0521851	
0.166016	
0.383301	
0.65979	
0.875854	
0.900574	
0.675659	
0.321045	
0.0134277	
-0.128174	
-0.137329	
-0.0915527	
-0.0561523	
-0.039978	
-0.0265503	
-0.0100708	
0.0088501	
0.00610352	
-0.00183105	
-0.0146484	
-0.00671387	
0.00915527	
0.00579834	
-0.000915527	
0.00701904	
0.0283813	
0.043335	
0.0259399	
0.0137329	
0.0210571	
0.0473022	
0.0601196	
0.0671387	
0.0830078	
0.0845337	
0.0695801	
0.0436401	
0.0418091	
0.0588989	
0.0909424	
0.103149	
0.108337	
0.0970459	
0.0863647	
0.101318	
0.143127	
0.186768	
0.215454	
0.221863	
0.228882	
0.236816	
0.26123	
0.282898	
0.290222	
0.271912	
0.245972	
0.233459	
0.233459	
0.212097	
0.155334	
0.0805664	
0.0192261	
-0.0308228	
-0.0674438	
-0.0875854	
-0.0811768	
-0.0775146	
-0.0979614	
-0.118713	
-0.126343	
-0.115662	
-0.111084	
-0.12207	
-0.127258	
-0.124207	
-0.133057	
-0.144958	
-0.139465	
-0.122375	
-0.115051	
-0.137634	
-0.167847	
-0.162354	
-0.136414	
-0.113831	
-0.104065	
-0.112305	
-0.119324	
-0.129089	
-0.130615	
-0.1297	
-0.0958252	
-0.085144	
-0.0881958	
-0.114136	
-0.123291	
-0.112	
-0.106506	
-0.120544	
-0.133972	
-0.123596	
-0.101624	
-0.0924683	
-0.0814819	
-0.0827026	
-0.0750732	
-0.0790405	
-0.10376	
-0.122986	
-0.130615	
-0.130615	
-0.132446	
-0.144653	
-0.148315	
-0.136414	
-0.119934	
-0.115967	
-0.113831	
-0.110168	
-0.105896	
-0.101318	
-0.104675	
-0.0939941	
-0.0952148	
-0.108948	
-0.12207	
-0.144348	
-0.140076	
-0.138855	
-0.130615	
-0.131531	
-0.14679	
-0.154419	
-0.143433	
-0.110474	
-0.0830078	
-0.0793457	
-0.0769043	
-0.0686646	
-0.045166	
-0.0445557	
-0.0567627	
-0.0811768	
-0.101929	
-0.131836	
-0.164185	
-0.179138	
-0.183411	
-0.171204	
-0.168457	
-0.176086	
-0.174561	
-0.168762	
-0.144653	
-0.13031	
-0.127258	
-0.140381	
-0.152588	
-0.137939	
-0.0540161	
0.11322	
0.336914	
0.521545	
0.559387	
0.396423	
0.0714111	
-0.245056	
-0.41687	
-0.413513	
-0.32074	
-0.239868	
-0.198059	
-0.187683	
-0.19043	
-0.193787	
-0.183411	
-0.187683	
-0.195313	
-0.199585	
-0.177612	
-0.145874	
-0.125732	
-0.136108	
-0.161133	
-0.17334	
-0.168457	
-0.160217	
-0.152588	
-0.151062	
-0.146484	
-0.122986	
-0.125122	
-0.132446	
-0.130005	
-0.104675	
-0.0753784	
-0.0735474	
-0.0952148	
-0.102234	
-0.0769043	
-0.0241089	
0.0228882	
0.0454712	
0.0512695	
0.0500488	
0.0616455	
0.078125	
0.0927734	
0.111389	
0.130005	
0.148315	
0.158081	
0.153503	
0.137634	
0.109558	
0.0830078	
0.0570679	
0.0314331	
0.00518799	
-0.0341797	
-0.0872803	
-0.13916	
-0.172424	
-0.19043	
-0.198975	
-0.215759	
-0.21637	
-0.216675	
-0.203247	
-0.216675	
-0.24292	
-0.267944	
-0.273132	
-0.256042	
-0.244446	
-0.245056	
-0.24231	
-0.235291	
-0.215149	
-0.206909	
-0.213013	
-0.227661	
-0.252075	
-0.249939	
-0.237122	
-0.212708	
-0.192261	
-0.193481	
-0.216675	
-0.240784	
-0.248718	
-0.232239	
-0.209656	
-0.202026	
-0.202942	
-0.195313	
-0.193787	
-0.188599	
-0.193176	
-0.196228	
-0.19165	
-0.197449	
-0.211487	
-0.227966	
-0.221252	
-0.200195	
-0.194702	
-0.215759	
-0.233154	
-0.227661	
-0.198364	
-0.177002	
-0.179749	
-0.19104	
-0.205078	
-0.203552	
-0.189209	
-0.19104	
-0.196533	
-0.205994	
-0.211792	
-0.204773	
-0.201111	
-0.191956	
-0.1828	
-0.179443	
-0.1828	
-0.17395	
-0.167236	
-0.170593	
-0.186462	
-0.202026	
-0.200806	
-0.184937	
-0.178223	
-0.186157	
-0.201416	
-0.209656	
-0.197144	
-0.192261	
-0.186768	
-0.183105	
-0.178528	
-0.168762	
-0.165405	
-0.166016	
-0.169373	
-0.170288	
-0.1651	
-0.145874	
-0.131836	
-0.127258	
-0.147095	
-0.162659	
-0.163269	
-0.148315	
-0.150757	
-0.181274	
-0.218506	
-0.232544	
-0.223083	
-0.201111	
-0.180969	
-0.173035	
-0.175781	
-0.185852	
-0.196533	
-0.20752	
-0.213013	
-0.218201	
-0.199585	
-0.12085	
0.045166	
0.302429	
0.550842	
0.657654	
0.538025	
0.218201	
-0.122986	
-0.336914	
-0.393066	
-0.351868	
-0.297546	
-0.248413	
-0.223999	
-0.213318	
-0.236206	
-0.240173	
-0.231018	
-0.218506	
-0.210876	
-0.195007	
-0.184631	
-0.172424	
-0.180664	
-0.183411	
-0.175476	
-0.167847	
-0.168762	
-0.161133	
-0.15625	
-0.144653	
-0.137329	
-0.143127	
-0.156555	
-0.169678	
-0.141602	
-0.0939941	
-0.0473022	
-0.0457764	
-0.0622559	
-0.0784302	
-0.0741577	
-0.0665283	
-0.0506592	
-0.0299072	
-0.000610352	
0.0256348	
0.0561523	
0.0823975	
0.09552	
0.0915527	
0.0958252	
0.117493	
0.136719	
0.143433	
0.12146	
0.098877	
0.0717163	
0.0408936	
0.00213623	
-0.038147	
-0.0842285	
-0.125427	
-0.154419	
-0.169983	
-0.185242	
-0.204468	
-0.23468	
-0.261841	
-0.281677	
-0.266724	
-0.231323	
-0.188599	
-0.176086	
-0.187073	
-0.212097	
-0.222168	
-0.206299	
-0.187988	
-0.206909	
-0.229492	
-0.25177	
-0.231628	
-0.210266	
-0.204773	
-0.209351	
-0.209351	
-0.206299	
-0.196838	
-0.18158	
-0.164185	
-0.155945	
-0.162659	
-0.161438	
-0.154724	
-0.148621	
-0.169067	
-0.204163	
-0.215759	
-0.197754	
-0.157471	
-0.125427	
-0.128784	
-0.139465	
-0.150146	
-0.150146	
-0.152588	
-0.157776	
-0.175476	
-0.185242	
-0.187988	
-0.168457	
-0.15564	
-0.150452	
-0.151367	
-0.158081	
-0.144653	
-0.13855	
-0.13855	
-0.13855	
-0.141602	
-0.134888	
-0.127869	
-0.139771	
-0.149841	
-0.169067	
-0.173645	
-0.158386	
-0.13916	
-0.127258	
-0.134583	
-0.143738	
-0.140991	
-0.133362	
-0.14679	
-0.15686	
-0.15564	
-0.152588	
-0.13916	
-0.137939	
-0.136108	
-0.128784	
-0.133667	
-0.142822	
-0.14801	
-0.152588	
-0.133972	
-0.109863	
-0.103149	
-0.116272	
-0.129395	
-0.123901	
-0.102234	
-0.101013	
-0.110474	
-0.111694	
-0.11322	
-0.111389	
-0.123596	
-0.12146	
-0.098877	
-0.0640869	
-0.0454712	
-0.045166	
-0.0640869	
-0.0744629	
-0.0811768	
-0.0775146	
-0.0827026	
-0.11322	
-0.133057	
-0.132141	
-0.110474	
-0.10376	
-0.115356	
-0.137939	
-0.137634	
-0.126953	
-0.122986	
-0.129089	
-0.143738	
-0.142822	
-0.090332	
0.0531006	
0.299988	
0.583496	
0.767517	
0.739136	
0.467834	
0.100708	
-0.182495	
-0.291138	
-0.267029	
-0.217896	
-0.189819	
-0.172729	
-0.154724	
-0.136719	
-0.129395	
-0.136719	
-0.149536	
-0.151672	
-0.134583	
-0.104675	
-0.0912476	
-0.0967407	
-0.10498	
-0.100403	
-0.0894165	
-0.078125	
-0.0827026	
-0.0915527	
-0.0982666	
-0.0997925	
-0.105591	
-0.0970459	
-0.0762939	
-0.0326538	
0.00396729	
0.0112915	
-0.00762939	
-0.0186157	
-0.0167847	
0.00762939	
0.0210571	
0.0448608	
0.0689697	
0.09552	
0.122375	
0.128479	
0.127869	
0.127869	
0.149841	
0.186157	
0.214844	
0.216675	
0.214844	
0.21698	
0.201111	
0.167236	
0.117798	
0.0921631	
0.0622559	
0.0112915	
-0.0524902	
-0.0994873	
-0.110474	
-0.118408	
-0.140076	
-0.174255	
-0.202637	
-0.203247	
-0.186768	
-0.16449	
-0.158386	
-0.148926	
-0.14679	
-0.146484	
-0.157471	
-0.166626	
-0.175476	
-0.185547	
-0.181885	
-0.169983	
-0.158386	
-0.178528	
-0.183105	
-0.173645	
-0.14801	
-0.145874	
-0.151367	
-0.123901	
-0.0827026	
-0.0738525	
-0.112305	
-0.153809	
-0.157776	
-0.138245	
-0.122375	
-0.119934	
-0.102844	
-0.0860596	
-0.0939941	
-0.12085	
-0.157471	
-0.158997	
-0.135498	
-0.119934	
-0.11322	
-0.115051	
-0.109863	
-0.102844	
-0.115356	
-0.125732	
-0.118103	
-0.106506	
-0.0985718	
-0.102234	
-0.109558	
-0.098877	
-0.0997925	
-0.0930786	
-0.0921631	
-0.088501	
-0.104675	
-0.114136	
-0.113525	
-0.100098	
-0.0872803	
-0.0796509	
-0.0793457	
-0.0845337	
-0.0869751	
-0.0891113	
-0.0909424	
-0.105286	
-0.108337	
-0.0814819	
-0.0564575	
-0.0479126	
-0.0778198	
-0.108032	
-0.114136	
-0.0970459	
-0.0653076	
-0.0527954	
-0.0613403	
-0.0842285	
-0.0891113	
-0.0836182	
-0.0775146	
-0.071106	
-0.0765991	
-0.0848389	
-0.0817871	
-0.067749	
-0.039978	
-0.0170898	
-0.0222778	
-0.0378418	
-0.0463867	
-0.0445557	
-0.0177002	
0.00579834	
0.0320435	
0.0387573	
0.0244141	
-0.00793457	
-0.0274658	
-0.0305176	
-0.0442505	
-0.0640869	
-0.0827026	
-0.0778198	
-0.0588989	
-0.0588989	
-0.0604248	
-0.071106	
-0.0704956	
-0.0622559	
-0.0521851	
-0.050354	
-0.0454712	
-0.00854492	
0.122986	
0.348511	
0.576477	
0.689392	
0.594788	
0.308228	
-0.00946045	
-0.231934	
-0.279846	
-0.237122	
-0.178833	
-0.141296	
-0.102844	
-0.0637817	
-0.0445557	
-0.0500488	
-0.0643921	
-0.0854492	
-0.0839233	
-0.0650024	
-0.0524902	
-0.0665283	
-0.0823975	
-0.0668335	
-0.0369263	
-0.0183105	
-0.0289917	
-0.0424194	
-0.0360107	
-0.0250244	
-0.0180054	
-0.0167847	
-0.012207	
0.00640869	
0.0247192	
0.0354004	
0.0314331	
0.022583	
0.0219727	
0.0485229	
0.0878906	
0.111694	
0.10437	
0.0915527	
0.104065	
0.133667	
0.152283	
0.168457	
0.194092	
0.221558	
0.241089	
0.249023	
0.264282	
0.270691	
0.253296	
0.219421	
0.193787	
0.172119	
0.140686	
0.0891113	
0.0378418	
0.00213623	
-0.0244141	
-0.0497437	
-0.0784302	
-0.0982666	
-0.106812	
-0.107727	
-0.115051	
-0.11322	
-0.122681	
-0.139465	
-0.155945	
-0.151978	
-0.124512	
-0.104675	
-0.108948	
-0.116272	
-0.101318	
-0.112305	
-0.12146	
-0.140381	
-0.131836	
-0.105896	
-0.10437	
-0.115967	
-0.114441	
-0.0842285	
-0.0543213	
-0.0543213	
-0.0762939	
-0.0875854	
-0.0790405	
-0.0790405	
-0.0784302	
-0.0775146	
-0.078125	
-0.0799561	
-0.107117	
-0.117188	
-0.102539	
-0.0753784	
-0.0549316	
-0.0485229	
-0.0497437	
-0.0521851	
-0.0662231	
-0.0878906	
-0.0854492	
-0.0650024	
-0.0552368	
-0.0802612	
-0.115662	
-0.130005	
-0.119324	
-0.0894165	
-0.078125	
-0.0823975	
-0.0839233	
-0.0631714	
-0.0488281	
-0.0430298	
-0.0619507	
-0.0723267	
-0.0793457	
-0.0857544	
-0.0854492	
-0.067749	
-0.0558472	
-0.0601196	
-0.067749	
-0.0509644	
-0.0167847	
0.00762939	
0.0012207	
-0.00976563	
-0.0125122	
-0.0241089	
-0.0457764	
-0.0750732	
-0.0842285	
-0.0796509	
-0.0680542	
-0.072937	
-0.0686646	
-0.0723267	
-0.0839233	
-0.106812	
-0.120239	
-0.103455	
-0.0726318	
-0.06073	
-0.0549316	
0.00976563	
0.172119	
0.406494	
0.623779	
0.705261	
0.579834	
0.269775	
-0.0878906	
-0.31189	
-0.346375	
-0.25116	
-0.146484	
-0.0799561	
-0.0637817	
-0.0848389	
-0.123901	
-0.143433	
-0.120239	
-0.0723267	
-0.0442505	
-0.0454712	
-0.0585938	
-0.0592041	
-0.0384521	
-0.0344849	
-0.0527954	
-0.0830078	
-0.0961304	
-0.0674438	
-0.0335693	
-0.0137329	
-0.0177002	
-0.0283813	
-0.0286865	
-0.0216675	
-0.0158691	
-0.00823975	
0.00244141	
0.0201416	
0.0354004	
0.0524902	
0.0686646	
0.0689697	
0.065918	
0.065918	
0.104675	
0.169678	
0.219727	
0.243225	
0.244751	
0.244141	
0.252686	
0.256042	
0.236206	
0.211182	
0.18158	
0.168457	
0.1651	
0.148621	
0.102844	
0.03479	
-0.020752	
-0.0418091	
-0.0442505	
-0.0460815	
-0.0613403	
-0.0933838	
-0.128174	
-0.158081	
-0.163879	
-0.147095	
-0.133057	
-0.135193	
-0.130615	
-0.132446	
-0.1297	
-0.136108	
-0.136414	
-0.127869	
-0.121155	
-0.115967	
-0.108643	
-0.09552	
-0.0967407	
-0.10498	
-0.110779	
-0.109253	
-0.107727	
-0.120239	
-0.12146	
-0.10498	
-0.0979614	
-0.0900269	
-0.0787354	
-0.062561	
-0.0582886	
-0.0701904	
-0.0784302	
-0.0747681	
-0.0643921	
-0.0726318	
-0.0741577	
-0.0735474	
-0.0692749	
-0.0708008	
-0.065918	
-0.0637817	
-0.0680542	
-0.0735474	
-0.0830078	
-0.0814819	
-0.0823975	
-0.0912476	
-0.0997925	
-0.0964355	
-0.0717163	
-0.0473022	
-0.0469971	
-0.0619507	
-0.0796509	
-0.0762939	
-0.057373	
-0.0387573	
-0.0311279	
-0.0463867	
-0.0714111	
-0.0961304	
-0.108948	
-0.108643	
-0.0799561	
-0.0457764	
-0.0262451	
-0.0192261	
-0.0341797	
-0.0457764	
-0.0448608	
-0.0390625	
-0.0305176	
-0.0259399	
-0.0320435	
-0.0286865	
-0.0222778	
-0.027771	
-0.0241089	
-0.0213623	
-0.0125122	
-0.0131226	
-0.0231934	
-0.0384521	
-0.0610352	
-0.0750732	
-0.0811768	
-0.0683594	
-0.0469971	
-0.0332642	
-0.0457764	
-0.0720215	
-0.0912476	
-0.0949097	
-0.0982666	
-0.0906372	
-0.0183105	
0.140076	
0.360718	
0.592957	
0.718384	
0.672913	
0.438232	
0.113831	
-0.134583	
-0.238953	
-0.233765	
-0.17395	
-0.136719	
-0.115662	
-0.108948	
-0.116882	
-0.0997925	
-0.0808716	
-0.0592041	
-0.0494385	
-0.0506592	
-0.067749	
-0.0759888	
-0.0827026	
-0.0756836	
-0.0704956	
-0.055542	
-0.0296021	
-0.00701904	
0.00244141	
-0.00762939	
-0.0167847	
-0.0146484	
-0.0167847	
-0.0247192	
-0.0411987	
-0.0402832	
-0.0219727	
0.015564	
0.0558472	
0.0784302	
0.0820923	
0.0808716	
0.0762939	
0.0897217	
0.106812	
0.135498	
0.160522	
0.196533	
0.226135	
0.247498	
0.251465	
0.240173	
0.230408	
0.229187	
0.239258	
0.245361	
0.232544	
0.19928	
0.135498	
0.0765991	
0.0234985	
-0.0256348	
-0.0686646	
-0.0863647	
-0.0915527	
-0.0881958	
-0.0930786	
-0.107727	
-0.112915	
-0.117493	
-0.123596	
-0.114441	
-0.106201	
-0.100098	
-0.105896	
-0.0918579	
-0.0933838	
-0.112915	
-0.14679	
-0.162048	
-0.142517	
-0.133057	
-0.129395	
-0.12146	
-0.090332	
-0.0762939	
-0.085144	
-0.102234	
-0.107727	
-0.0964355	
-0.0906372	
-0.0894165	
-0.103149	
-0.109253	
-0.105286	
-0.0881958	
-0.0747681	
-0.0775146	
-0.10437	
-0.0991821	
-0.0860596	
-0.0741577	
-0.0717163	
-0.0814819	
-0.0808716	
-0.0714111	
-0.062561	
-0.0619507	
-0.0802612	
-0.0958252	
-0.119324	
-0.111084	
-0.088501	
-0.0744629	
-0.0592041	
-0.0680542	
-0.071106	
-0.0640869	
-0.0665283	
-0.0796509	
-0.0869751	
-0.0799561	
-0.0653076	
-0.0643921	
-0.0741577	
-0.0787354	
-0.0686646	
-0.0643921	
-0.062561	
-0.0570679	
-0.0695801	
-0.0726318	
-0.0714111	
-0.0634766	
-0.0479126	
-0.0488281	
-0.0524902	
-0.0506592	
-0.0546265	
-0.0616455	
-0.0772095	
-0.0820923	
-0.0695801	
-0.0494385	
-0.0350952	
-0.0283813	
-0.0289917	
-0.0280762	
-0.0274658	
-0.0262451	
-0.0274658	
-0.0134277	
0.00427246	
0.0289917	
0.0372314	
0.0256348	
0.00915527	
-0.0146484	
-0.0430298	
-0.065918	
-0.0744629	
-0.0704956	
-0.0506592	
-0.0369263	
-0.0338745	
-0.0378418	
-0.0448608	
-0.0500488	
-0.0534058	
-0.0518799	
-0.0643921	
-0.0918579	
-0.102234	
-0.0393677	
0.127258	
0.375366	
0.63385	
0.782471	
0.734558	
0.467834	
0.118103	
-0.148315	
-0.255127	
-0.231628	
-0.157471	
-0.111389	
-0.083313	
-0.0741577	
-0.0665283	
-0.0738525	
-0.0912476	
-0.0982666	
-0.0772095	
-0.0579834	
-0.0549316	
-0.0619507	
-0.0610352	
-0.0488281	
-0.0390625	
-0.0366211	
-0.0393677	
-0.0378418	
-0.0259399	
-0.0180054	
-0.00976563	
-0.00946045	
-0.0149536	
-0.0125122	
-0.0012207	
0.00732422	
0.0158691	
0.0198364	
0.0247192	
0.0296021	
0.0396729	
0.0518799	
0.0747681	
0.100098	
0.128784	
0.155029	
0.188599	
0.213623	
0.228577	
0.231323	
0.222778	
0.225525	
0.233459	
0.239868	
0.234375	
0.205994	
0.180664	
0.152588	
0.12207	
0.0848389	
0.0350952	
-0.0106812	
-0.0567627	
-0.0909424	
-0.108948	
-0.113525	
-0.120239	
-0.128479	
-0.130005	
-0.128479	
-0.121155	
-0.12207	
-0.114136	
-0.127258	
-0.148926	
-0.174561	
-0.169373	
-0.135803	
-0.108337	
-0.111084	
-0.1297	
-0.150146	
-0.162354	
-0.161743	
-0.153809	
-0.137329	
-0.126038	
-0.125427	
-0.130615	
-0.122375	
-0.107727	
-0.100403	
-0.117188	
-0.132141	
-0.132446	
-0.107117	
-0.105896	
-0.119629	
-0.134277	
-0.128784	
-0.111389	
-0.111694	
-0.123291	
-0.134583	
-0.128479	
-0.111084	
-0.102539	
-0.102844	
-0.119324	
-0.119629	
-0.116882	
-0.0994873	
-0.0973511	
-0.104675	
-0.114136	
-0.124207	
-0.126953	
-0.135193	
-0.134277	
-0.124512	
-0.130615	
-0.129089	
-0.122375	
-0.0933838	
-0.071106	
-0.0674438	
-0.0878906	
-0.10437	
-0.112915	
-0.110168	
-0.113831	
-0.111389	
-0.111084	
-0.101624	
-0.105896	
-0.110779	
-0.109863	
-0.0967407	
-0.088501	
-0.0946045	
-0.100403	
-0.105286	
-0.0942993	
-0.0866699	
-0.0686646	
-0.0585938	
-0.0476074	
-0.0421143	
-0.0372314	
-0.0405884	
-0.0585938	
-0.0802612	
-0.0927734	
-0.0991821	
-0.100403	
-0.11322	
-0.123596	
-0.137939	
-0.135803	
-0.1297	
-0.122986	
-0.129395	
-0.132141	
-0.126343	
-0.111694	
-0.10498	
-0.0933838	
-0.0177002	
0.15564	
0.404663	
0.600281	
0.630493	
0.440979	
0.114441	
-0.188293	
-0.366516	
-0.379333	
-0.312805	
-0.223999	
-0.154114	
-0.129089	
-0.127258	
-0.135193	
-0.134583	
-0.116577	
-0.103149	
-0.0942993	
-0.100403	
-0.114746	
-0.133667	
-0.136108	
-0.128479	
-0.120239	
-0.0942993	
-0.0735474	
-0.0588989	
-0.065918	
-0.0842285	
-0.0802612	
-0.0671387	
-0.0488281	
-0.0390625	
-0.0308228	
-0.0311279	
-0.0366211	
-0.0424194	
-0.0192261	
0.00518799	
0.0305176	
0.0387573	
0.0524902	
0.0704956	
0.0952148	
0.123901	
0.155945	
0.18219	
0.197754	
0.205383	
0.209351	
0.219116	
0.228577	
0.231323	
0.214844	
0.180359	
0.149841	
0.117188	
0.0717163	
0.0323486	
-0.0164795	
-0.0500488	
-0.0866699	
-0.114746	
-0.128784	
-0.136108	
-0.144653	
-0.155945	
-0.166931	
-0.166626	
-0.167236	
-0.162964	
-0.161438	
-0.162659	
-0.153809	
-0.153809	
-0.155029	
-0.1651	
-0.173035	
-0.166626	
-0.158081	
-0.151367	
-0.155945	
-0.155334	
-0.140381	
-0.120544	
-0.110474	
-0.120544	
-0.131531	
-0.137939	
-0.132751	
-0.121155	
-0.109253	
-0.105286	
-0.11261	
-0.119324	
-0.10498	
-0.0787354	
-0.0842285	
-0.111084	
-0.134888	
-0.111084	
-0.0689697	
-0.0521851	
-0.0692749	
-0.0982666	
-0.108032	
-0.0952148	
-0.0808716	
-0.0759888	
-0.0872803	
-0.0924683	
-0.0964355	
-0.0900269	
-0.101318	
-0.105286	
-0.0964355	
-0.0869751	
-0.0775146	
-0.0769043	
-0.0698853	
-0.0689697	
-0.0653076	
-0.0817871	
-0.0875854	
-0.0842285	
-0.0680542	
-0.055542	
-0.0476074	
-0.043335	
-0.0476074	
-0.0616455	
-0.0762939	
-0.0674438	
-0.0442505	
-0.0186157	
-0.0088501	
0.00274658	
-0.00213623	
0.00946045	
0.012207	
0.00549316	
-0.0234985	
-0.0674438	
-0.100708	
-0.0979614	
-0.0805664	
-0.0543213	
-0.0436401	
-0.0442505	
-0.0543213	
-0.0588989	
-0.0613403	
-0.062561	
-0.0662231	
-0.0753784	
-0.0439453	
0.0585938	
0.263367	
0.526733	
0.740051	
0.786743	
0.600586	
0.259705	
-0.0671387	
-0.236206	
-0.244141	
-0.182495	
-0.132446	
-0.10437	
-0.0830078	
-0.0631714	
-0.0567627	
-0.0646973	
-0.0695801	
-0.0604248	
-0.0445557	
-0.0418091	
-0.0558472	
-0.0708008	
-0.065918	
-0.0338745	
-0.00732422	
0.00427246	
-0.0100708	
-0.0265503	
-0.0234985	
0.000915527	
0.0198364	
0.0213623	
0.00793457	
0.0152588	
0.0460815	
0.0646973	
0.0570679	
0.0378418	
0.0415039	
0.0628662	
0.0994873	
0.127258	
0.149231	
0.161133	
0.172119	
0.19928	
0.223694	
0.251465	
0.250244	
0.255127	
0.265198	
0.294189	
0.321655	
0.322876	
0.303345	
0.269775	
0.228882	
0.180359	
0.142517	
0.103149	
0.0592041	
0.0170898	
-0.00732422	
-0.0256348	
-0.0534058	
-0.0775146	
-0.0689697	
-0.0408936	
-0.0286865	
-0.0473022	
-0.0680542	
-0.0723267	
-0.0680542	
-0.057373	
-0.0378418	
-0.0189209	
-0.0180054	
-0.0268555	
-0.0509644	
-0.0741577	
-0.0906372	
-0.0918579	
-0.0643921	
-0.0485229	
-0.0579834	
-0.0585938	
-0.0454712	
-0.022583	
-0.0204468	
-0.0354004	
-0.0387573	
-0.0372314	
-0.0387573	
-0.0512695	
-0.0521851	
-0.0222778	
0.0186157	
0.0332642	
0.0131226	
-0.0228882	
-0.0366211	
-0.0219727	
0.0012207	
0.0106812	
0.000610352	
-0.00701904	
-0.0128174	
-0.012207	
-0.0158691	
-0.0152588	
-0.00793457	
-0.0146484	
-0.0198364	
-0.020752	
-0.010376	
0.00610352	
0.012207	
-0.00335693	
-0.022583	
-0.0192261	
-0.00213623	
0.0186157	
0.00793457	
-0.00610352	
-0.00427246	
0.0115967	
0.0259399	
0.0167847	
0.000915527	
-0.00640869	
-0.000915527	
0.00732422	
0.00823975	
0.00823975	
0.0115967	
0.0183105	
0.00427246	
-0.00946045	
-0.0112915	
0.0183105	
0.043335	
0.0524902	
0.0473022	
0.0384521	
0.0280762	
0.0152588	
0.0244141	
0.0534058	
0.098877	
0.105896	
0.0976563	
0.0820923	
0.0787354	
0.0778198	
0.0592041	
0.0350952	
0.0274658	
0.0256348	
0.0250244	
0.00823975	
-0.0137329	
-0.0152588	
0.0189209	
0.0598145	
0.0686646	
0.0463867	
0.0247192	
0.00732422	
0	
0.0241089	
0.133667	
0.358276	
0.647278	
0.85907	
0.888977	
0.676575	
0.314331	
-0.00488281	
-0.166016	
-0.179138	
-0.118713	
-0.057373	
-0.00701904	
0.0241089	
0.0100708	
-0.0125122	
-0.0241089	
-0.0088501	
0.0161743	
0.0332642	
0.0350952	
0.0268555	
0.0128174	
-0.00213623	
-0.000305176	
0.0137329	
0.027771	
0.0283813	
0.0195313	
0.0195313	
0.0460815	
0.0756836	
0.0946045	
0.0979614	
0.0863647	
0.0836182	
0.0830078	
0.0857544	
0.0979614	
0.111084	
0.126648	
0.140686	
0.159912	
0.180359	
0.187988	
0.202942	
0.220947	
0.258789	
0.298462	
0.325623	
0.342712	
0.354614	
0.357361	
0.359802	
0.344543	
0.325012	
0.290527	
0.256653	
0.218811	
0.180054	
0.140991	
0.0982666	
0.045166	
0.00274658	
-0.0119019	
-0.00915527	
-0.0280762	
-0.0616455	
-0.0735474	
-0.0561523	
-0.0234985	
-0.0128174	
-0.0311279	
-0.0595093	
-0.0778198	
-0.0756836	
-0.0558472	
-0.0302124	
-0.0302124	
-0.0405884	
-0.0543213	
-0.0570679	
-0.0506592	
-0.0466919	
-0.057373	
-0.0640869	
-0.0564575	
-0.0421143	
-0.0268555	
-0.015564	
-0.0210571	
-0.0308228	
-0.0375366	
-0.0354004	
-0.020752	
-0.0119019	
-0.00701904	
-0.00640869	
-0.0158691	
-0.0210571	
-0.0250244	
-0.0238037	
-0.0134277	
0.00274658	
0.00701904	
-0.00213623	
-0.0305176	
-0.0506592	
-0.055542	
-0.0476074	
-0.0375366	
-0.0222778	
-0.0152588	
-0.0125122	
-0.0170898	
-0.0216675	
-0.0283813	
-0.0286865	
-0.0210571	
-0.00488281	
0.00213623	
-0.00549316	
-0.0296021	
-0.0445557	
-0.0479126	
-0.0396729	
-0.0253296	
-0.012207	
-0.00213623	
-0.00946045	
-0.0302124	
-0.0448608	
-0.038147	
-0.0112915	
0.00396729	
0.000305176	
-0.0192261	
-0.0390625	
-0.0363159	
-0.0271606	
-0.0152588	
-0.0088501	
-0.0109863	
-0.0161743	
-0.027771	
-0.0421143	
-0.0424194	
-0.0262451	
-0.00335693	
0.0100708	
0.0167847	
0.0210571	
0.0192261	
0.015564	
0.0143433	
0.0274658	
0.0564575	
0.0656128	
0.0622559	
0.0442505	
0.0274658	
0.00762939	
-0.0161743	
-0.0454712	
-0.0610352	
-0.0479126	
-0.0289917	
-0.0198364	
-0.0210571	
-0.0274658	
-0.010376	
0.00640869	
0.00366211	
-0.0131226	
-0.0372314	
-0.0454712	
-0.0012207	
0.111084	
0.315857	
0.565186	
0.73761	
0.727844	
0.496521	
0.145874	
-0.142517	
-0.256348	
-0.232544	
-0.156555	
-0.104675	
-0.0830078	
-0.0692749	
-0.0601196	
-0.0579834	
-0.0466919	
-0.0402832	
-0.0378418	
-0.045166	
-0.0595093	
-0.057373	
-0.0482178	
-0.0280762	
-0.012207	
0.00305176	
0.012207	
0.00701904	
-0.00366211	
-0.00305176	
0.00152588	
0.00488281	
0.00610352	
0.0131226	
0.0253296	
0.0402832	
0.0482178	
0.0543213	
0.0546265	
0.0619507	
0.0646973	
0.0866699	
0.111694	
0.147705	
0.169678	
0.173645	
0.175781	
0.19165	
0.218811	
0.240173	
0.257568	
0.269775	
0.278931	
0.278015	
0.264282	
0.254822	
0.237732	
0.211487	
0.180054	
0.142212	
0.0976563	
0.0393677	
-0.0128174	
-0.0421143	
-0.0531006	
-0.0683594	
-0.098877	
-0.132751	
-0.141296	
-0.125122	
-0.0985718	
-0.0924683	
-0.103149	
-0.106506	
-0.0973511	
-0.0875854	
-0.101624	
-0.127563	
-0.142822	
-0.133972	
-0.108643	
-0.0744629	
-0.0701904	
-0.0863647	
-0.104675	
-0.106812	
-0.0967407	
-0.088501	
-0.0894165	
-0.0891113	
-0.083313	
-0.071106	
-0.0701904	
-0.0799561	
-0.0888062	
-0.0802612	
-0.0662231	
-0.0622559	
-0.0631714	
-0.0637817	
-0.0610352	
-0.062561	
-0.0744629	
-0.0796509	
-0.0912476	
-0.0827026	
-0.0717163	
-0.0576782	
-0.0579834	
-0.067749	
-0.0875854	
-0.0967407	
-0.0860596	
-0.071106	
-0.0616455	
-0.0665283	
-0.072937	
-0.0772095	
-0.0811768	
-0.0875854	
-0.0814819	
-0.0704956	
-0.0689697	
-0.0735474	
-0.0720215	
-0.06073	
-0.0457764	
-0.043335	
-0.0549316	
-0.057373	
-0.0509644	
-0.0375366	
-0.0350952	
-0.03479	
-0.0140381	
0.00915527	
0.0219727	
0.00946045	
-0.0100708	
-0.0170898	
-0.0357056	
-0.057373	
-0.0738525	
-0.0869751	
-0.0863647	
-0.0793457	
-0.0759888	
-0.0793457	
-0.0918579	
-0.105591	
-0.107117	
-0.098877	
-0.0817871	
-0.0756836	
-0.0668335	
-0.027771	
0.101318	
0.314636	
0.549011	
0.687866	
0.643921	
0.410767	
0.0912476	
-0.163574	
-0.280457	
-0.281067	
-0.220032	
-0.153198	
-0.0991821	
-0.0762939	
-0.0723267	
-0.0708008	
-0.0631714	
-0.0622559	
-0.0692749	
-0.071106	
-0.0723267	
-0.0735474	
-0.0650024	
-0.0610352	
-0.0668335	
-0.0759888	
-0.0650024	
-0.0424194	
-0.0195313	
-0.00701904	
0.00213623	
0.0106812	
0.00427246	
-0.0119019	
-0.0125122	
0.00671387	
0.0259399	
0.0466919	
0.0405884	
0.0375366	
0.0393677	
0.0653076	
0.093689	
0.116272	
0.127563	
0.147095	
0.181885	
0.22583	
0.256653	
0.265503	
0.258789	
0.258789	
0.271301	
0.285034	
0.270386	
0.26001	
0.221863	
0.188904	
0.140991	
0.0930786	
0.0421143	
-0.0112915	
-0.0488281	
-0.0552368	
-0.0500488	
-0.0616455	
-0.0854492	
-0.110779	
-0.118103	
-0.118408	
-0.119019	
-0.112915	
-0.10376	
-0.0964355	
-0.102234	
-0.119324	
-0.12085	
-0.118713	
-0.112	
-0.11261	
-0.108948	
-0.101929	
-0.0900269	
-0.0872803	
-0.0912476	
-0.101013	
-0.110779	
-0.110474	
-0.103149	
-0.0878906	
-0.0839233	
-0.0747681	
-0.0650024	
-0.0491333	
-0.0500488	
-0.0698853	
-0.078125	
-0.0747681	
-0.062561	
-0.0570679	
-0.0634766	
-0.0622559	
-0.0671387	
-0.0692749	
-0.0643921	
-0.0518799	
-0.0515747	
-0.0619507	
-0.0717163	
-0.0750732	
-0.0598145	
-0.0479126	
-0.0341797	
-0.039978	
-0.0637817	
-0.101929	
-0.108337	
-0.0860596	
-0.0552368	
-0.0396729	
-0.0469971	
-0.0460815	
-0.0427246	
-0.0366211	
-0.0436401	
-0.0524902	
-0.0634766	
-0.0769043	
-0.0820923	
-0.083313	
-0.0708008	
-0.0592041	
-0.0564575	
-0.055542	
-0.057373	
-0.0524902	
-0.0415039	
-0.0341797	
-0.0292969	
-0.0354004	
-0.0531006	
-0.0653076	
-0.0750732	
-0.0738525	
-0.0598145	
-0.0320435	
-0.0228882	
-0.015564	
-0.0222778	
-0.0183105	
0.00610352	
0.0238037	
0.0296021	
0.0161743	
-0.000915527	
-0.010376	
-0.0125122	
-0.03479	
-0.0732422	
-0.0946045	
-0.0823975	
-0.0405884	
-0.00640869	
-0.012207	
-0.0430298	
-0.0619507	
-0.0549316	
-0.0411987	
-0.0402832	
-0.0558472	
-0.0753784	
-0.0601196	
0.0320435	
0.189514	
0.411377	
0.619507	
0.71991	
0.643311	
0.380554	
0.0634766	
-0.167236	
-0.259705	
-0.230408	
-0.174866	
-0.119324	
-0.0942993	
-0.0848389	
-0.0799561	
-0.0820923	
-0.0878906	
-0.100708	
-0.10498	
-0.0933838	
-0.0714111	
-0.0613403	
-0.0582886	
-0.062561	
-0.062561	
-0.0643921	
-0.0668335	
-0.0613403	
-0.0479126	
-0.0427246	
-0.0360107	
-0.0341797	
-0.0268555	
-0.0299072	
-0.0262451	
-0.0213623	
-0.010376	
-0.00305176	
0.0100708	
0.0350952	
0.0622559	
0.0872803	
0.103455	
0.108948	
0.118408	
0.140381	
0.155029	
0.168762	
0.189209	
0.214539	
0.239563	
0.253296	
0.25177	
0.25238	
0.235596	
0.202942	
0.174561	
0.151672	
0.122681	
0.0875854	
0.0454712	
0.00732422	
-0.0238037	
-0.0592041	
-0.0857544	
-0.10498	
-0.126038	
-0.134888	
-0.137939	
-0.124817	
-0.117188	
-0.111084	
-0.12207	
-0.135193	
-0.146484	
-0.137329	
-0.116577	
-0.0878906	
-0.0762939	
-0.0805664	
-0.10376	
-0.126648	
-0.133667	
-0.118103	
-0.0930786	
-0.0756836	
-0.0723267	
-0.0778198	
-0.0924683	
-0.100403	
-0.0979614	
-0.0869751	
-0.0848389	
-0.0933838	
-0.107117	
-0.101013	
-0.0769043	
-0.055542	
-0.0628662	
-0.0778198	
-0.0857544	
-0.0671387	
-0.0366211	
-0.0265503	
-0.0296021	
-0.0518799	
-0.0689697	
-0.0680542	
-0.0656128	
-0.062561	
-0.0637817	
-0.0592041	
-0.0561523	
-0.0610352	
-0.0915527	
-0.105591	
-0.0949097	
-0.0521851	
-0.017395	
-0.0213623	
-0.0537109	
-0.0820923	
-0.0875854	
-0.0723267	
-0.0439453	
-0.0271606	
-0.0332642	
-0.0692749	
-0.090332	
-0.0869751	
-0.0558472	
-0.0259399	
-0.0201416	
-0.0231934	
-0.0189209	
-0.0219727	
-0.0317383	
-0.0473022	
-0.055542	
-0.0595093	
-0.0695801	
-0.0717163	
-0.0460815	
-0.00976563	
0.0149536	
-0.00518799	
-0.0286865	
-0.043335	
-0.0372314	
-0.00915527	
0.0161743	
0.0292969	
0.0286865	
0.0146484	
0.0131226	
0.015564	
0.0131226	
-0.00549316	
-0.0311279	
-0.0415039	
-0.0463867	
-0.0531006	
-0.0585938	
-0.0473022	
-0.0332642	
-0.0259399	
-0.0415039	
-0.0527954	
-0.0497437	
-0.0335693	
-0.032959	
-0.0369263	
0.00457764	
0.137939	
0.377808	
0.623169	
0.753174	
0.667725	
0.370483	
0.0158691	
-0.244446	
-0.308838	
-0.238342	
-0.137939	
-0.0759888	
-0.0650024	
-0.0738525	
-0.0869751	
-0.0854492	
-0.0900269	
-0.0839233	
-0.0787354	
-0.0671387	
-0.0622559	
-0.0601196	
-0.0488281	
-0.0213623	
-0.00762939	
-0.022583	
-0.0405884	
-0.039978	
-0.0201416	
-0.00701904	
-0.00762939	
-0.00244141	
-0.00762939	
0.00152588	
-0.00427246	
0.000305176	
0.0170898	
0.0411987	
0.0704956	
0.0881958	
0.0891113	
0.0888062	
0.0915527	
0.105591	
0.132141	
0.175171	
0.211182	
0.236511	
0.254517	
0.273438	
0.283813	
0.269775	
0.248108	
0.229492	
0.233154	
0.242004	
0.249939	
0.229797	
0.185242	
0.124817	
0.0656128	
0.0213623	
0.000305176	
-0.0106812	
-0.0372314	
-0.0778198	
-0.114441	
-0.134277	
-0.125732	
-0.11261	
-0.0878906	
-0.0799561	
-0.0952148	
-0.119934	
-0.1297	
-0.122986	
-0.102844	
-0.0952148	
-0.085144	
-0.0790405	
-0.09552	
-0.106506	
-0.12146	
-0.112915	
-0.10498	
-0.114441	
-0.100098	
-0.0952148	
-0.0946045	
-0.0961304	
-0.0994873	
-0.0827026	
-0.0631714	
-0.0344849	
-0.0180054	
-0.0189209	
-0.0326538	
-0.0354004	
-0.0411987	
-0.072937	
-0.123901	
-0.143738	
-0.125122	
-0.0894165	
-0.0738525	
-0.0717163	
-0.065918	
-0.0570679	
-0.0439453	
-0.0457764	
-0.0650024	
-0.0802612	
-0.0878906	
-0.0698853	
-0.06073	
-0.0427246	
-0.0320435	
-0.0189209	
-0.0372314	
-0.0744629	
-0.0967407	
-0.0802612	
-0.039978	
-0.0012207	
0.0128174	
0.0180054	
0.0100708	
-0.00579834	
-0.0137329	
-0.0201416	
-0.0192261	
-0.0396729	
-0.065918	
-0.0839233	
-0.0796509	
-0.0619507	
-0.0671387	
-0.0717163	
-0.0775146	
-0.0585938	
-0.0335693	
-0.0302124	
-0.043335	
-0.0634766	
-0.0668335	
-0.0268555	
0.11322	
0.33783	
0.593872	
0.718384	
0.630188	
0.355225	
0.0302124	
-0.202026	
-0.288696	
-0.264587	
-0.198059	
-0.136414	
-0.10376	
-0.085144	
-0.0689697	
-0.0515747	
-0.0427246	
-0.0674438	
-0.0878906	
-0.0894165	
-0.0640869	
-0.0375366	
-0.0512695	
-0.0579834	
-0.0494385	
-0.0314331	
-0.0283813	
-0.0372314	
-0.0305176	
0.0012207	
0.0234985	
0.022583	
0.015564	
0.00701904	
0.00793457	
0.00427246	
0.00152588	
0.0143433	
0.0454712	
0.0817871	
0.103149	
0.100708	
0.0946045	
0.106506	
0.144043	
0.184631	
0.214539	
0.229797	
0.235901	
0.250549	
0.259399	
0.272217	
0.278931	
0.287476	
0.286255	
0.26001	
0.222168	
0.169067	
0.12146	
0.0860596	
0.055542	
0.0219727	
-0.0283813	
-0.083313	
-0.127563	
-0.1297	
-0.101929	
-0.0750732	
-0.0656128	
-0.0866699	
-0.120239	
-0.136719	
-0.135498	
-0.116272	
-0.107422	
-0.120544	
-0.133667	
-0.140991	
-0.135498	
-0.123901	
-0.115967	
-0.0985718	
-0.0915527	
-0.0860596	
-0.0799561	
-0.0900269	
-0.0964355	
-0.101318	
-0.093689	
-0.0787354	
-0.0671387	
-0.0689697	
-0.0793457	
-0.0875854	
-0.0787354	
-0.0646973	
-0.0476074	
-0.0543213	
-0.0680542	
-0.0662231	
-0.0567627	
-0.0448608	
-0.0479126	
-0.0521851	
-0.0604248	
-0.0653076	
-0.0741577	
-0.0790405	
-0.0778198	
-0.0735474	
-0.067749	
-0.0531006	
-0.0469971	
-0.0524902	
-0.0567627	
-0.0619507	
-0.06073	
-0.0506592	
-0.039978	
-0.0405884	
-0.0515747	
-0.0714111	
-0.072937	
-0.0646973	
-0.0515747	
-0.0454712	
-0.0454712	
-0.0442505	
-0.0354004	
-0.0125122	
0.00366211	
0.00488281	
0.000610352	
0.00946045	
0.0454712	
0.0646973	
0.0415039	
-0.0283813	
-0.0778198	
-0.0778198	
-0.0509644	
-0.0460815	
-0.0738525	
-0.0964355	
-0.0823975	
-0.0454712	
-0.0204468	
-0.0305176	
-0.0546265	
-0.0634766	
-0.0610352	
-0.0671387	
-0.0540161	
0.0256348	
0.20752	
0.482178	
0.724792	
0.809631	
0.669556	
0.353394	
0.0262451	
-0.185242	
-0.25177	
-0.223694	
-0.160828	
-0.109253	
-0.0796509	
-0.0765991	
-0.0704956	
-0.0582886	
-0.0582886	
-0.0836182	
-0.106506	
-0.0994873	
-0.0750732	
-0.0601196	
-0.0631714	
-0.0595093	
-0.0408936	
-0.0299072	
-0.0350952	
-0.0561523	
-0.0546265	
-0.0354004	
-0.00854492	
-0.00213623	
-0.00671387	
-0.0161743	
-0.0158691	
-0.00579834	
0.020752	
0.0515747	
0.0491333	
0.0476074	
0.0497437	
0.0778198	
0.0991821	
0.109558	
0.128174	
0.152588	
0.183716	
0.203247	
0.218201	
0.227356	
0.235291	
0.249939	
0.255432	
0.25238	
0.23468	
0.215759	
0.203857	
0.179443	
0.136108	
0.0814819	
0.0247192	
-0.0216675	
-0.0549316	
-0.088501	
-0.102844	
-0.109558	
-0.110779	
-0.117188	
-0.12085	
-0.12146	
-0.11322	
-0.115967	
-0.122986	
-0.124207	
-0.117493	
-0.100098	
-0.0863647	
-0.0869751	
-0.0958252	
-0.108948	
-0.118408	
-0.114746	
-0.107422	
-0.0991821	
-0.098877	
-0.0918579	
-0.0894165	
-0.0808716	
-0.0817871	
-0.0857544	
-0.0839233	
-0.0802612	
-0.0778198	
-0.0650024	
-0.0634766	
-0.0506592	
-0.0411987	
-0.0393677	
-0.0360107	
-0.0488281	
-0.0527954	
-0.0564575	
-0.0500488	
-0.0332642	
-0.0323486	
-0.0418091	
-0.0500488	
-0.0488281	
-0.0341797	
-0.0445557	
-0.06073	
-0.0518799	
-0.0234985	
-0.00518799	
-0.00732422	
-0.0186157	
-0.0259399	
-0.0390625	
-0.0546265	
-0.0582886	
-0.0363159	
-0.0189209	
-0.00823975	
-0.00427246	
0.00640869	
0.0140381	
0.0201416	
0.0415039	
0.0973511	
0.185242	
0.273438	
0.352783	
0.451355	
0.584412	
0.738831	
0.871277	
0.948792	
0.947876	
0.847778	
0.652466	
0.369263	
0.0799561	
-0.135193	
-0.258179	
-0.298767	
-0.305176	
-0.292053	
-0.263672	
-0.240173	
-0.230408	
-0.220337	
-0.210266	
-0.196228	
-0.187073	
-0.195007	
-0.205078	
-0.198059	
-0.179443	
-0.160522	
-0.157776	
-0.166931	
-0.16449	
-0.161133	
-0.150757	
-0.146179	
-0.140076	
-0.145874	
-0.13855	
-0.119324	
-0.107727	
-0.127258	
-0.161133	
-0.164795	
-0.121155	
-0.0604248	
-0.0488281	
-0.0643921	
-0.0906372	
-0.0848389	
-0.0616455	
-0.0445557	
-0.0439453	
-0.0515747	
-0.0476074	
-0.0350952	
-0.0112915	
-0.00396729	
-0.00854492	
-0.0286865	
-0.0357056	
-0.0247192	
-0.00152588	
0.022583	
0.0402832	
0.0344849	
0.0134277	
-0.015564	
-0.0320435	
-0.0393677	
-0.043335	
-0.0564575	
-0.0561523	
-0.0558472	
-0.0592041	
-0.0750732	
-0.085144	
-0.0808716	
-0.0820923	
-0.0921631	
-0.107422	
-0.112305	
-0.0863647	
-0.0680542	
-0.062561	
-0.0683594	
-0.0921631	
-0.111694	
-0.117188	
-0.0994873	
-0.0686646	
-0.0457764	
-0.0454712	
-0.0512695	
-0.0604248	
-0.0668335	
-0.0637817	
-0.0518799	
-0.0415039	
-0.0366211	
-0.0418091	
-0.0485229	
-0.0509644	
-0.062561	
-0.078125	
-0.0772095	
-0.0585938	
-0.0256348	
-0.0125122	
-0.0286865	
-0.050354	
-0.0588989	
-0.0601196	
-0.065918	
-0.078125	
-0.0720215	
-0.0509644	
-0.0256348	
-0.010376	
-0.0131226	
-0.0411987	
-0.0622559	
-0.0732422	
-0.0598145	
-0.0405884	
-0.0262451	
-0.0292969	
-0.0244141	
-0.0289917	
-0.0354004	
-0.0564575	
-0.0698853	
-0.0582886	
-0.0262451	
-0.012207	
-0.0100708	
-0.0219727	
-0.0323486	
-0.0354004	
-0.0378418	
-0.0402832	
-0.0387573	
-0.0439453	
-0.0454712	
-0.0454712	
-0.0445557	
-0.0366211	
-0.0311279	
-0.0231934	
-0.0271606	
-0.0238037	
-0.0189209	
-0.0289917	
-0.0454712	
-0.0610352	
-0.0604248	
-0.0405884	
-0.0305176	
-0.0238037	
-0.0204468	
-0.00518799	
0.0128174	
0.0341797	
0.0411987	
0.0296021	
0.0268555	
0.0292969	
0.0320435	
0.00305176	
-0.0473022	
-0.0787354	
-0.0628662	
-0.0302124	
-0.0158691	
-0.0247192	
-0.0439453	
-0.0418091	
-0.0354004	
-0.0393677	
-0.0534058	
-0.0598145	
-0.0588989	
-0.0238037	
0.0531006	
0.209961	
0.42511	
0.606995	
0.655823	
0.501099	
0.196228	
-0.0958252	
-0.26123	
-0.270691	
-0.204163	
-0.135193	
-0.0866699	
-0.0717163	
-0.0750732	
-0.0799561	
-0.065918	
-0.0466919	
-0.0350952	
-0.0506592	
-0.0643921	
-0.0714111	
-0.0619507	
-0.0424194	
-0.0469971	
-0.0454712	
-0.0357056	
-0.00793457	
0.0131226	
0.0106812	
-0.00915527	
-0.0152588	
-0.0109863	
0.0012207	
0.00915527	
0.00549316	
0.0192261	
0.0463867	
0.0692749	
0.0793457	
0.0576782	
0.0595093	
0.0830078	
0.121765	
0.141602	
0.144958	
0.15625	
0.185852	
0.220642	
0.232239	
0.241699	
0.246887	
0.25238	
0.253601	
0.247803	
0.238953	
0.236511	
0.216675	
0.198059	
0.170898	
0.137024	
0.0827026	
0.0158691	
-0.0323486	
-0.0436401	
-0.0494385	
-0.0720215	
-0.107727	
-0.116577	
-0.11322	
-0.108643	
-0.115967	
-0.117798	
-0.115662	
-0.115967	
-0.113525	
-0.102539	
-0.0839233	
-0.0836182	
-0.0979614	
-0.122986	
-0.136414	
-0.127258	
-0.103455	
-0.0863647	
-0.0854492	
-0.0921631	
-0.0939941	
-0.090332	
-0.0891113	
-0.0805664	
-0.065918	
-0.0463867	
-0.0479126	
-0.0631714	
-0.0747681	
-0.0671387	
-0.0543213	
-0.0500488	
-0.0595093	
-0.0723267	
-0.0689697	
-0.050354	
-0.0350952	
-0.0354004	
-0.0585938	
-0.0845337	
-0.0836182	
-0.0613403	
-0.0354004	
-0.0317383	
-0.0552368	
-0.0619507	
-0.0534058	
-0.0350952	
-0.0314331	
-0.0326538	
-0.0216675	
0.0088501	
0.0317383	
0.0250244	
-0.0167847	
-0.0674438	
-0.0888062	
-0.0805664	
-0.0695801	
-0.062561	
-0.0637817	
-0.0662231	
-0.0650024	
-0.0689697	
-0.0646973	
-0.0674438	
-0.0802612	
-0.0845337	
-0.0820923	
-0.0805664	
-0.0769043	
-0.0213623	
0.121155	
0.35675	
0.591125	
0.714111	
0.649414	
0.388489	
0.0567627	
-0.184937	
-0.271606	
-0.239563	
-0.171814	
-0.128784	
-0.0976563	
-0.0875854	
-0.0866699	
-0.0918579	
-0.0973511	
-0.0921631	
-0.0939941	
-0.0909424	
-0.0961304	
-0.0964355	
-0.0897217	
-0.0701904	
-0.0595093	
-0.0466919	
-0.0476074	
-0.0473022	
-0.062561	
-0.0701904	
-0.0631714	
-0.0442505	
-0.0228882	
-0.0213623	
-0.0167847	
-0.00640869	
0.00946045	
0.0238037	
0.0241089	
0.00946045	
0.0170898	
0.0485229	
0.0875854	
0.113831	
0.123596	
0.117188	
0.131531	
0.160522	
0.201416	
0.234985	
0.242004	
0.236206	
0.232239	
0.224915	
0.20813	
0.198059	
0.170898	
0.140381	
0.0942993	
0.0448608	
-0.00549316	
-0.0570679	
-0.085144	
-0.103149	
-0.112915	
-0.119934	
-0.124817	
-0.120239	
-0.128784	
-0.141296	
-0.151062	
-0.149841	
-0.139465	
-0.124817	
-0.114136	
-0.116272	
-0.138855	
-0.152283	
-0.142822	
-0.105286	
-0.0817871	
-0.0805664	
-0.0961304	
-0.12085	
-0.133057	
-0.133972	
-0.122681	
-0.0997925	
-0.0848389	
-0.078125	
-0.0820923	
-0.0912476	
-0.0967407	
-0.0924683	
-0.0881958	
-0.0869751	
-0.0823975	
-0.0622559	
-0.0546265	
-0.0592041	
-0.0823975	
-0.103149	
-0.113525	
-0.0979614	
-0.0662231	
-0.0390625	
-0.0488281	
-0.0839233	
-0.11322	
-0.0970459	
-0.0598145	
-0.0436401	
-0.0448608	
-0.0656128	
-0.0665283	
-0.0637817	
-0.0598145	
-0.0631714	
-0.0720215	
-0.0579834	
-0.0228882	
0.0405884	
0.10376	
0.15564	
0.216064	
0.304565	
0.411377	
0.527954	
0.619812	
0.677795	
0.669556	
0.570374	
0.365295	
0.0741577	
-0.191956	
-0.317993	
-0.308228	
-0.226135	
-0.196228	
-0.213623	
-0.239258	
-0.256958	
-0.255127	
-0.250244	
-0.228271	
-0.187378	
-0.144348	
-0.119629	
-0.116577	
-0.127869	
-0.134277	
-0.139771	
-0.133057	
-0.116882	
-0.0979614	
-0.0875854	
-0.093689	
-0.0979614	
-0.101929	
-0.0942993	
-0.0784302	
-0.0512695	
-0.0262451	
-0.0271606	
-0.0418091	
-0.0534058	
-0.043335	
-0.0167847	
0.00518799	
0.0198364	
0.0280762	
0.038147	
0.0500488	
0.0662231	
0.0698853	
0.0564575	
0.0463867	
0.0521851	
0.0787354	
0.0991821	
0.0985718	
0.0894165	
0.09552	
0.0921631	
0.0839233	
0.0753784	
0.0744629	
0.0869751	
0.0820923	
0.0521851	
0.0152588	
-0.0204468	
-0.0488281	
-0.0671387	
-0.0784302	
-0.0820923	
-0.09552	
-0.102844	
-0.0939941	
-0.0857544	
-0.0790405	
-0.09552	
-0.109253	
-0.116577	
-0.107422	
-0.107422	
-0.113831	
-0.120544	
-0.0970459	
-0.0717163	
-0.0656128	
-0.0967407	
-0.126648	
-0.121155	
-0.0875854	
-0.0604248	
-0.0531006	
-0.0735474	
-0.0860596	
-0.0756836	
-0.0527954	
-0.0360107	
-0.0387573	
-0.0378418	
-0.03479	
-0.0482178	
-0.0701904	
-0.0930786	
-0.0924683	
-0.0787354	
-0.0650024	
-0.0524902	
-0.0512695	
-0.050354	
-0.0582886	
-0.0619507	
-0.0671387	
-0.0686646	
-0.0680542	
-0.0588989	
-0.0491333	
-0.0375366	
-0.038147	
-0.055542	
-0.0747681	
-0.0708008	
-0.0543213	
-0.0350952	
-0.0259399	
-0.0280762	
-0.0308228	
-0.0430298	
-0.043335	
-0.039978	
-0.0378418	
-0.0442505	
-0.0582886	
-0.0622559	
-0.0610352	
-0.055542	
-0.0479126	
-0.0363159	
-0.0241089	
-0.0384521	
-0.0518799	
-0.0518799	
-0.03479	
-0.0112915	
-0.0134277	
-0.0305176	
-0.0415039	
-0.0311279	
-0.0158691	
-0.0244141	
-0.0506592	
-0.0668335	
-0.0650024	
-0.0479126	
-0.0372314	
-0.0357056	
-0.0509644	
-0.0561523	
-0.0543213	
-0.0305176	
-0.00183105	
-0.00213623	
-0.0119019	
-0.0228882	
-0.0338745	
-0.0396729	
-0.0485229	
-0.039978	
-0.0289917	
-0.0152588	
-0.0250244	
-0.0415039	
-0.0531006	
-0.0491333	
-0.0296021	
-0.00549316	
0.00183105	
-0.0189209	
-0.0259399	
-0.015564	
0.0198364	
0.0436401	
0.0411987	
0.0213623	
0.00762939	
0.00946045	
0.0195313	
0.0189209	
-0.012207	
-0.0540161	
-0.0790405	
-0.0704956	
-0.0466919	
-0.0466919	
-0.043335	
-0.0415039	
-0.0302124	
-0.0357056	
-0.0411987	
-0.0524902	
-0.0473022	
0.00701904	
0.144043	
0.368042	
0.604553	
0.739441	
0.691833	
0.456848	
0.130615	
-0.131531	
-0.239258	
-0.220947	
-0.151062	
-0.108337	
-0.0866699	
-0.0845337	
-0.0827026	
-0.0769043	
-0.0698853	
-0.0665283	
-0.0686646	
-0.0784302	
-0.0836182	
-0.0787354	
-0.0549316	
-0.0311279	
-0.0244141	
-0.0366211	
-0.0497437	
-0.0497437	
-0.0421143	
-0.0360107	
-0.0314331	
-0.0378418	
-0.0299072	
-0.0167847	
0.00610352	
0.0201416	
0.00976563	
0.00640869	
0.0177002	
0.0405884	
0.0680542	
0.0820923	
0.0924683	
0.0985718	
0.105591	
0.12146	
0.1474	
0.171814	
0.19043	
0.203857	
0.216064	
0.231323	
0.243225	
0.230103	
0.222778	
0.22583	
0.237732	
0.228271	
0.193481	
0.14801	
0.110474	
0.071106	
0.0259399	
-0.0125122	
-0.0387573	
-0.0564575	
-0.0717163	
-0.0897217	
-0.0888062	
-0.093689	
-0.108032	
-0.110168	
-0.0924683	
-0.065918	
-0.0653076	
-0.0967407	
-0.115356	
-0.109253	
-0.100708	
-0.100098	
-0.105286	
-0.0976563	
-0.0830078	
-0.0720215	
-0.0720215	
-0.0790405	
-0.0872803	
-0.0891113	
-0.0866699	
-0.0878906	
-0.0830078	
-0.0717163	
-0.0692749	
-0.0708008	
-0.0698853	
-0.0460815	
-0.0323486	
-0.0311279	
-0.0512695	
-0.0595093	
-0.0558472	
-0.0469971	
-0.0466919	
-0.0564575	
-0.0765991	
-0.0997925	
-0.103149	
-0.0793457	
-0.0527954	
-0.0473022	
-0.0585938	
-0.0576782	
-0.0408936	
-0.020752	
-0.0222778	
-0.0283813	
-0.0302124	
-0.0326538	
-0.0238037	
-0.0112915	
-0.00518799	
0.00335693	
0.00854492	
0.0274658	
0.0320435	
0.00946045	
-0.0341797	
-0.0604248	
-0.0738525	
-0.0671387	
-0.0585938	
-0.0457764	
-0.0469971	
-0.0488281	
-0.0561523	
-0.055542	
-0.0457764	
-0.0442505	
-0.0469971	
-0.0497437	
-0.0405884	
-0.00732422	
0.0817871	
0.262451	
0.50415	
0.679626	
0.653687	
0.403442	
0.0643921	
-0.189819	
-0.27832	
-0.259399	
-0.213013	
-0.165405	
-0.116577	
-0.0570679	
-0.0326538	
-0.0430298	
-0.0610352	
-0.0714111	
-0.0524902	
-0.0405884	
-0.0405884	
-0.0408936	
-0.0283813	
-0.00793457	
0.000915527	
-0.0192261	
-0.0405884	
-0.0485229	
-0.03479	
-0.0213623	
-0.0109863	
-0.00213623	
0.00152588	
0.0128174	
0.0305176	
0.0439453	
0.057373	
0.0585938	
0.0506592	
0.0622559	
0.0784302	
0.0997925	
0.115967	
0.132446	
0.155334	
0.177307	
0.201721	
0.220947	
0.250549	
0.264587	
0.26062	
0.26123	
0.26886	
0.280151	
0.271912	
0.250549	
0.22644	
0.197144	
0.143127	
0.0762939	
0.0152588	
-0.0213623	
-0.0289917	
-0.0463867	
-0.0634766	
-0.0808716	
-0.104675	
-0.122986	
-0.133057	
-0.123596	
-0.111389	
-0.106506	
-0.116272	
-0.131226	
-0.1297	
-0.123901	
-0.112	
-0.100708	
-0.0997925	
-0.105286	
-0.117188	
-0.124207	
-0.130005	
-0.116272	
-0.0979614	
-0.0732422	
-0.0769043	
-0.0836182	
-0.0933838	
-0.085144	
-0.0830078	
-0.0823975	
-0.0717163	
-0.0637817	
-0.0582886	
-0.0619507	
-0.0650024	
-0.0634766	
-0.0735474	
-0.090332	
-0.0991821	
-0.0857544	
-0.0546265	
-0.0357056	
-0.0561523	
-0.0906372	
-0.107422	
-0.0946045	
-0.0631714	
-0.0384521	
-0.0445557	
-0.0671387	
-0.09552	
-0.0946045	
-0.0683594	
-0.0341797	
-0.022583	
-0.0320435	
-0.0488281	
-0.0552368	
-0.0521851	
-0.0378418	
-0.0192261	
-0.00915527	
-0.00427246	
0.00396729	
0.00457764	
0.00152588	
-0.0189209	
-0.0564575	
-0.0772095	
-0.0772095	
-0.0592041	
-0.0521851	
-0.065918	
-0.078125	
-0.0714111	
-0.0524902	
-0.0436401	
-0.0524902	
-0.0601196	
-0.0881958	
-0.0985718	
-0.0442505	
0.110779	
0.358582	
0.621338	
0.758362	
0.673218	
0.387878	
0.0366211	
-0.185547	
-0.249939	
-0.215759	
-0.148926	
-0.104065	
-0.0793457	
-0.0946045	
-0.115051	
-0.105896	
-0.0787354	
-0.0598145	
-0.0668335	
-0.0933838	
-0.0979614	
-0.0811768	
-0.0613403	
-0.0509644	
-0.045166	
-0.0494385	
-0.0463867	
-0.0515747	
-0.057373	
-0.045166	
-0.0244141	
-0.00518799	
0.00335693	
-0.00823975	
-0.00762939	
-0.00732422	
0.00427246	
0.0143433	
0.0323486	
0.0570679	
0.0790405	
0.0869751	
0.0830078	
0.0839233	
0.102844	
0.127258	
0.158691	
0.181274	
0.203247	
0.21759	
0.22583	
0.227051	
0.224609	
0.224304	
0.227661	
0.223083	
0.205994	
0.173645	
0.12207	
0.0585938	
0.00335693	
-0.0384521	
-0.0683594	
-0.0912476	
-0.10498	
-0.102844	
-0.103149	
-0.118713	
-0.116882	
-0.085144	
-0.067749	
-0.0756836	
-0.111389	
-0.1297	
-0.112	
-0.0952148	
-0.0900269	
-0.0985718	
-0.108948	
-0.106506	
-0.111389	
-0.116577	
-0.122375	
-0.114746	
-0.0958252	
-0.0878906	
-0.0872803	
-0.0939941	
-0.088501	
-0.0692749	
-0.0518799	
-0.0448608	
-0.0567627	
-0.0747681	
-0.0927734	
-0.107117	
-0.101929	
-0.0863647	
-0.083313	
-0.0881958	
-0.0888062	
-0.0765991	
-0.0646973	
-0.0613403	
-0.0665283	
-0.0613403	
-0.0570679	
-0.0488281	
-0.0460815	
-0.045166	
-0.0665283	
-0.0796509	
-0.0765991	
-0.0631714	
-0.0527954	
-0.0582886	
-0.067749	
-0.0759888	
-0.0897217	
-0.0906372	
-0.0732422	
-0.0460815	
-0.0265503	
-0.0286865	
-0.0460815	
-0.0585938	
-0.0561523	
-0.0549316	
-0.0546265	
-0.0585938	
-0.06073	
-0.0564575	
-0.0585938	
-0.0640869	
-0.0592041	
-0.0518799	
-0.0445557	
-0.0363159	
-0.0393677	
-0.0363159	
-0.0201416	
0.000610352	
0.0198364	
0.0186157	
0.0115967	
0.00976563	
0.00640869	
0.00274658	
-0.0195313	
-0.0445557	
-0.0582886	
-0.0595093	
-0.0497437	
-0.0500488	
-0.067749	
-0.0784302	
-0.0738525	
-0.0604248	
-0.0360107	
-0.0268555	
-0.0384521	
-0.0585938	
-0.0830078	
-0.0619507	
0.0384521	
0.228882	
0.489197	
0.702209	
0.754395	
0.586243	
0.274048	
-0.0170898	
-0.176392	
-0.221558	
-0.187073	
-0.157471	
-0.115967	
-0.0778198	
-0.0549316	
-0.0567627	
-0.0808716	
-0.0970459	
-0.0976563	
-0.0866699	
-0.0717163	
-0.0524902	
-0.0369263	
-0.0338745	
-0.0411987	
-0.0442505	
-0.0418091	
-0.0411987	
-0.043335	
-0.0442505	
-0.0247192	
0.00335693	
0.00579834	
-0.000305176	
-0.0134277	
-0.00640869	
0.0109863	
0.0280762	
0.0317383	
0.0326538	
0.0375366	
0.0497437	
0.0662231	
0.0930786	
0.108948	
0.142517	
0.166321	
0.195313	
0.212402	
0.216675	
0.224609	
0.234985	
0.248413	
0.253296	
0.239868	
0.222473	
0.203247	
0.186768	
0.166626	
0.132751	
0.0854492	
0.0296021	
-0.0119019	
-0.0411987	
-0.0469971	
-0.0561523	
-0.085144	
-0.112305	
-0.12146	
-0.104675	
-0.0845337	
-0.0924683	
-0.115356	
-0.142212	
-0.142212	
-0.136719	
-0.128479	
-0.119934	
-0.118408	
-0.116577	
-0.108337	
-0.093689	
-0.0735474	
-0.078125	
-0.09552	
-0.110474	
-0.10376	
-0.0842285	
-0.0769043	
-0.088501	
-0.108948	
-0.114441	
-0.10437	
-0.0897217	
-0.0787354	
-0.0793457	
-0.0848389	
-0.0881958	
-0.0772095	
-0.0689697	
-0.0637817	
-0.0747681	
-0.0839233	
-0.0775146	
-0.0674438	
-0.0588989	
-0.0674438	
-0.0827026	
-0.0918579	
-0.0891113	
-0.0784302	
-0.0701904	
-0.0656128	
-0.0570679	
-0.0527954	
-0.0576782	
-0.0744629	
-0.0894165	
-0.0897217	
-0.0772095	
-0.0744629	
-0.0744629	
-0.0689697	
-0.0524902	
-0.0393677	
-0.050354	
-0.071106	
-0.0790405	
-0.0616455	
-0.0457764	
-0.0405884	
-0.0631714	
-0.0756836	
-0.0756836	
-0.0595093	
-0.0506592	
-0.0564575	
-0.0665283	
-0.0714111	
-0.0701904	
-0.0567627	
-0.0442505	
-0.0228882	
-0.0189209	
-0.0369263	
-0.0601196	
-0.0726318	
-0.0762939	
-0.0738525	
-0.0778198	
-0.0665283	
-0.0405884	
-0.017395	
-0.0210571	
-0.0418091	
-0.0643921	
-0.0637817	
-0.0341797	
0.00427246	
0.0280762	
0.0302124	
0.00366211	
-0.00213623	
-0.0012207	
-0.0012207	
-0.0131226	
-0.0402832	
-0.0646973	
-0.0701904	
-0.0698853	
-0.0738525	
-0.0878906	
-0.0973511	
-0.0921631	
-0.0656128	
-0.0436401	
-0.0387573	
-0.0482178	
-0.0726318	
-0.0830078	
-0.0210571	
0.125122	
0.366821	
0.612183	
0.744324	
0.690308	
0.440369	
0.115967	
-0.148315	
-0.262451	
-0.228271	
-0.153503	
-0.105896	
-0.09552	
-0.107117	
-0.105896	
-0.108032	
-0.105286	
-0.106506	
-0.0967407	
-0.0808716	
-0.0701904	
-0.0680542	
-0.0805664	
-0.085144	
-0.0756836	
-0.0576782	
-0.0396729	
-0.0354004	
-0.0421143	
-0.0506592	
-0.0375366	
-0.0253296	
-0.00732422	
-0.00793457	
-0.00579834	
0.0012207	
0.0125122	
0.015564	
0.00793457	
0.00915527	
0.0305176	
0.0698853	
0.101318	
0.109863	
0.113831	
0.126648	
0.143738	
0.16449	
0.187378	
0.20752	
0.23468	
0.261536	
0.27771	
0.280457	
0.262451	
0.220032	
0.179138	
0.154724	
0.140381	
0.118408	
0.0692749	
0.0109863	
-0.0317383	
-0.0588989	
-0.0680542	
-0.0793457	
-0.0921631	
-0.111694	
-0.126038	
-0.124207	
-0.122681	
-0.123901	
-0.135498	
-0.134583	
-0.125427	
-0.108948	
-0.101013	
-0.108643	
-0.106201	
-0.0976563	
-0.0918579	
-0.0869751	
-0.0985718	
-0.109253	
-0.125122	
-0.129395	
-0.114136	
-0.0878906	
-0.0839233	
-0.102844	
-0.111694	
-0.107422	
-0.0817871	
-0.0515747	
-0.0415039	
-0.0460815	
-0.0735474	
-0.0952148	
-0.0967407	
-0.0799561	
-0.0662231	
-0.0653076	
-0.0714111	
-0.0695801	
-0.0701904	
-0.0717163	
-0.0750732	
-0.065918	
-0.055542	
-0.0598145	
-0.0595093	
-0.0631714	
-0.06073	
-0.06073	
-0.0686646	
-0.0604248	
-0.0576782	
-0.0695801	
-0.0817871	
-0.0869751	
-0.0805664	
-0.0701904	
-0.0564575	
-0.0344849	
-0.0268555	
-0.0448608	
-0.0524902	
-0.0411987	
-0.0244141	
-0.0415039	
-0.0930786	
-0.118103	
-0.0976563	
-0.0454712	
-0.0186157	
-0.0228882	
-0.0564575	
-0.0704956	
-0.0732422	
-0.0588989	
-0.0448608	
-0.0305176	
-0.0146484	
-0.00793457	
-0.0146484	
-0.0170898	
-0.00671387	
0.0131226	
0.0311279	
0.0262451	
0.0143433	
0.0012207	
-0.0112915	
-0.0219727	
-0.0366211	
-0.0460815	
-0.0585938	
-0.0668335	
-0.0650024	
-0.055542	
-0.0448608	
-0.0543213	
-0.0698853	
-0.0793457	
-0.0704956	
-0.0613403	
-0.0643921	
-0.0482178	
0.0186157	
0.171814	
0.384216	
0.588074	
0.673523	
0.563354	
0.270996	
-0.0418091	
-0.238342	
-0.274353	
-0.220947	
-0.1651	
-0.128784	
-0.103455	
-0.0906372	
-0.0827026	
-0.0692749	
-0.0515747	
-0.0314331	
-0.0402832	
-0.0518799	
-0.0643921	
-0.0634766	
-0.0515747	
-0.0396729	
-0.03479	
-0.0354004	
-0.0411987	
-0.0363159	
-0.0259399	
-0.0161743	
-0.00976563	
-0.00946045	
0.00640869	
0.0195313	
0.0292969	
0.0250244	
0.0143433	
0.0234985	
0.0448608	
0.0686646	
0.0796509	
0.0839233	
0.0906372	
0.110168	
0.135803	
0.163269	
0.194397	
0.209656	
0.219727	
0.22644	
0.243225	
0.247803	
0.25116	
0.244446	
0.243835	
0.24292	
0.227966	
0.2005	
0.155029	
0.0979614	
0.0445557	
0.00366211	
-0.0128174	
-0.0292969	
-0.0509644	
-0.0820923	
-0.106812	
-0.115662	
-0.115051	
-0.108948	
-0.104675	
-0.101624	
-0.131836	
-0.1474	
-0.14679	
-0.115967	
-0.0933838	
-0.116577	
-0.140991	
-0.146484	
-0.123291	
-0.0961304	
-0.0869751	
-0.0845337	
-0.0827026	
-0.088501	
-0.098877	
-0.0997925	
-0.0848389	
-0.0598145	
-0.0463867	
-0.0402832	
-0.0534058	
-0.0726318	
-0.083313	
-0.0842285	
-0.0714111	
-0.0686646	
-0.0708008	
-0.065918	
-0.0485229	
-0.0494385	
-0.057373	
-0.0628662	
-0.0646973	
-0.0592041	
-0.0579834	
-0.0759888	
-0.0680542	
-0.0698853	
-0.0579834	
-0.0619507	
-0.0662231	
-0.0631714	
-0.0619507	
-0.0714111	
-0.0848389	
-0.0854492	
-0.0619507	
-0.0457764	
-0.0506592	
-0.0491333	
-0.0360107	
-0.0262451	
-0.0466919	
-0.0756836	
-0.0845337	
-0.0558472	
-0.0253296	
-0.0134277	
-0.0140381	
-0.0143433	
-0.00640869	
0.00305176	
0.00305176	
0.00366211	
0.00915527	
0.000305176	
-0.0323486	
-0.0683594	
-0.0808716	
-0.0823975	
-0.083313	
-0.0857544	
-0.0671387	
-0.0350952	
-0.0283813	
-0.0570679	
-0.101013	
-0.11261	
-0.0933838	
-0.0338745	
0.057373	
0.212097	
0.420227	
0.618896	
0.690918	
0.568237	
0.270691	
-0.0497437	
-0.240784	
-0.27771	
-0.212097	
-0.140686	
-0.102234	
-0.083313	
-0.0881958	
-0.0836182	
-0.0753784	
-0.0717163	
-0.072937	
-0.078125	
-0.0708008	
-0.0698853	
-0.0753784	
-0.0714111	
-0.0564575	
-0.0296021	
-0.0335693	
-0.0427246	
-0.0473022	
-0.0317383	
-0.0106812	
-0.0222778	
-0.0292969	
-0.0286865	
-0.00488281	
0.0219727	
0.0280762	
0.020752	
0.0143433	
0.0112915	
0.0326538	
0.0491333	
0.0643921	
0.062561	
0.0704956	
0.0994873	
0.145569	
0.184631	
0.206299	
0.211487	
0.205994	
0.199585	
0.215149	
0.24353	
0.26062	
0.257568	
0.233154	
0.213928	
0.185242	
0.128479	
0.0588989	
0.00762939	
-0.010376	
-0.00701904	
-0.0384521	
-0.0900269	
-0.126343	
-0.128479	
-0.102539	
-0.103149	
-0.115967	
-0.131226	
-0.134583	
-0.123596	
-0.119019	
-0.114136	
-0.104675	
-0.0924683	
-0.0863647	
-0.0982666	
-0.11261	
-0.112305	
-0.107117	
-0.105591	
-0.101929	
-0.0970459	
-0.0900269	
-0.0982666	
-0.093689	
-0.0842285	
-0.067749	
-0.0726318	
-0.0772095	
-0.0732422	
-0.0704956	
-0.0811768	
-0.0830078	
-0.067749	
-0.0305176	
-0.0219727	
-0.0436401	
-0.0686646	
-0.0823975	
-0.0765991	
-0.0698853	
-0.062561	
-0.0628662	
-0.0796509	
-0.100708	
-0.0964355	
-0.0720215	
-0.0491333	
-0.0491333	
-0.0469971	
-0.032959	
-0.0204468	
-0.0289917	
-0.0491333	
-0.0610352	
-0.0601196	
-0.0567627	
-0.0646973	
-0.0741577	
-0.0717163	
-0.0543213	
-0.0442505	
-0.039978	
-0.0585938	
-0.062561	
-0.0561523	
-0.0595093	
-0.0592041	
-0.0592041	
-0.0335693	
-0.0164795	
-0.0180054	
-0.043335	
-0.057373	
-0.0558472	
-0.0427246	
-0.0286865	
-0.0311279	
-0.0268555	
-0.0238037	
-0.0146484	
-0.00854492	
-0.00213623	
0.0192261	
0.0363159	
0.0384521	
0.0158691	
-0.0219727	
-0.0436401	
-0.0640869	
-0.0741577	
-0.0698853	
-0.0582886	
-0.0427246	
-0.0479126	
-0.0689697	
-0.0759888	
-0.0646973	
-0.0476074	
-0.045166	
-0.0595093	
-0.0616455	
-0.00549316	
0.128174	
0.347595	
0.588379	
0.738831	
0.697937	
0.449524	
0.118408	
-0.126953	
-0.228882	
-0.222473	
-0.184326	
-0.153503	
-0.115662	
-0.0808716	
-0.0701904	
-0.0732422	
-0.085144	
-0.0976563	
-0.0872803	
-0.0726318	
-0.0588989	
-0.0531006	
-0.0598145	
-0.0604248	
-0.0665283	
-0.0509644	
-0.0390625	
-0.0216675	
-0.0213623	
-0.0231934	
-0.0256348	
-0.0268555	
-0.0363159	
-0.0375366	
-0.0180054	
0.0146484	
0.0265503	
0.0149536	
0.00701904	
0.0167847	
0.0497437	
0.0775146	
0.0863647	
0.0881958	
0.112	
0.158691	
0.202942	
0.22583	
0.218201	
0.209656	
0.214539	
0.224609	
0.239868	
0.236206	
0.228882	
0.223389	
0.214539	
0.198669	
0.158691	
0.115662	
0.0747681	
0.0360107	
-0.00518799	
-0.0280762	
-0.0436401	
-0.0601196	
-0.0836182	
-0.119019	
-0.137024	
-0.13092	
-0.11261	
-0.10376	
-0.112	
-0.121155	
-0.126648	
-0.110168	
-0.105896	
-0.101318	
-0.0997925	
-0.090332	
-0.0842285	
-0.0973511	
-0.109253	
-0.112305	
-0.0927734	
-0.0790405	
-0.0787354	
-0.0933838	
-0.0946045	
-0.0875854	
-0.0747681	
-0.0695801	
-0.0726318	
-0.0836182	
-0.0894165	
-0.0787354	
-0.0646973	
-0.0567627	
-0.0613403	
-0.0662231	
-0.0598145	
-0.0424194	
-0.0372314	
-0.0485229	
-0.0619507	
-0.0720215	
-0.0628662	
-0.0604248	
-0.0643921	
-0.0750732	
-0.0769043	
-0.062561	
-0.0570679	
-0.0537109	
-0.0637817	
-0.0708008	
-0.0650024	
-0.0622559	
-0.0561523	
-0.0543213	
-0.0506592	
-0.050354	
-0.057373	
-0.0640869	
-0.0662231	
-0.0549316	
-0.0317383	
-0.0280762	
-0.027771	
-0.0393677	
-0.0439453	
-0.0457764	
-0.0540161	
-0.0634766	
-0.0646973	
-0.0552368	
-0.0393677	
-0.0323486	
-0.0366211	
-0.0512695	
-0.0604248	
-0.0570679	
-0.0482178	
-0.0256348	
-0.0088501	
0.00152588	
-0.00549316	
-0.0262451	
-0.0543213	
-0.0671387	
-0.0769043	
-0.0778198	
-0.0701904	
-0.0671387	
-0.0509644	
-0.0308228	
0.00213623	
0.0167847	
0.0161743	
-0.000915527	
-0.00274658	
0.0119019	
0.0198364	
0.0204468	
0.0143433	
0.0119019	
0.0106812	
-0.00579834	
-0.0341797	
-0.0567627	
-0.0701904	
-0.0643921	
-0.0646973	
-0.0534058	
-0.0552368	
-0.0631714	
-0.0820923	
-0.0872803	
-0.0646973	
-0.043335	
-0.0421143	
-0.0323486	
0.0408936	
0.219116	
0.455933	
0.659485	
0.715332	
0.58197	
0.321655	
0.039978	
-0.157776	
-0.244751	
-0.236816	
-0.179749	
-0.117798	
-0.0720215	
-0.0500488	
-0.0689697	
-0.088501	
-0.102234	
-0.0869751	
-0.0692749	
-0.0750732	
-0.0787354	
-0.072937	
-0.0485229	
-0.039978	
-0.0488281	
-0.0619507	
-0.0616455	
-0.0491333	
-0.0372314	
-0.0308228	
-0.0305176	
-0.0177002	
-0.0146484	
-0.0134277	
0.00427246	
0.0234985	
0.039978	
0.0338745	
0.0241089	
0.0344849	
0.0500488	
0.0582886	
0.06073	
0.083313	
0.110168	
0.138245	
0.159302	
0.175171	
0.183105	
0.198975	
0.224609	
0.257263	
0.279541	
0.271912	
0.256042	
0.236206	
0.222473	
0.197754	
0.163269	
0.117798	
0.0671387	
0.0216675	
-0.0112915	
-0.0445557	
-0.067749	
-0.0857544	
-0.0927734	
-0.0927734	
-0.0991821	
-0.10498	
-0.115356	
-0.114136	
-0.112915	
-0.0976563	
-0.100098	
-0.102539	
-0.111084	
-0.115051	
-0.110779	
-0.106812	
-0.101013	
-0.0918579	
-0.0830078	
-0.0820923	
-0.0997925	
-0.116272	
-0.104675	
-0.0778198	
-0.0473022	
-0.0521851	
-0.0738525	
-0.0775146	
-0.0698853	
-0.0567627	
-0.0595093	
-0.0726318	
-0.0762939	
-0.0683594	
-0.0558472	
-0.045166	
-0.043335	
-0.0466919	
-0.0576782	
-0.0564575	
-0.0576782	
-0.0653076	
-0.0714111	
-0.0668335	
-0.0457764	
-0.0311279	
-0.0363159	
-0.0439453	
-0.0521851	
-0.062561	
-0.0704956	
-0.0784302	
-0.078125	
-0.0585938	
-0.0357056	
-0.022583	
-0.03479	
-0.0558472	
-0.0646973	
-0.0540161	
-0.0476074	
-0.0421143	
-0.0411987	
-0.0363159	
-0.0372314	
-0.0289917	
-0.00793457	
0.00976563	
0.00549316	
-0.0198364	
-0.0500488	
-0.0500488	
-0.0430298	
-0.00762939	
0.020752	
0.0405884	
0.045166	
0.0305176	
0.0250244	
0.0134277	
-0.00305176	
-0.012207	
-0.0219727	
-0.0296021	
-0.0402832	
-0.045166	
-0.0375366	
-0.038147	
-0.0543213	
-0.0683594	
-0.0561523	
-0.0241089	
-0.00518799	
-0.0115967	
-0.0296021	
-0.0238037	
0.0302124	
0.148926	
0.34668	
0.553284	
0.661011	
0.571289	
0.292969	
-0.0305176	
-0.262756	
-0.335388	
-0.291748	
-0.202026	
-0.118713	
-0.057373	
-0.0253296	
-0.0198364	
-0.0216675	
-0.0238037	
-0.0247192	
-0.0320435	
-0.0296021	
-0.0195313	
-0.00366211	
-0.0140381	
-0.0366211	
-0.0518799	
-0.0393677	
-0.00579834	
0.00915527	
0.0100708	
0.00396729	
0.00671387	
0.00701904	
0.00671387	
0.00976563	
0.0265503	
0.0418091	
0.0537109	
0.0592041	
0.0796509	
0.0946045	
0.0970459	
0.0897217	
0.0991821	
0.126648	
0.152588	
0.175171	
0.189209	
0.221558	
0.24353	
0.252686	
0.249023	
0.255127	
0.271912	
0.282593	
0.274048	
0.248108	
0.230103	
0.21698	
0.196533	
0.152893	
0.0982666	
0.050354	
0.017395	
-0.00946045	
-0.0418091	
-0.0808716	
-0.119629	
-0.132446	
-0.133362	
-0.120544	
-0.111694	
-0.112	
-0.117798	
-0.126953	
-0.131531	
-0.13916	
-0.13855	
-0.124817	
-0.105286	
-0.0952148	
-0.0979614	
-0.100098	
-0.100403	
-0.103455	
-0.106812	
-0.105591	
-0.0912476	
-0.0845337	
-0.0741577	
-0.0741577	
-0.0619507	
-0.0640869	
-0.0683594	
-0.0695801	
-0.0650024	
-0.0558472	
-0.0482178	
-0.0534058	
-0.0582886	
-0.0646973	
-0.0576782	
-0.0531006	
-0.0405884	
-0.0387573	
-0.0411987	
-0.0479126	
-0.0689697	
-0.0759888	
-0.0784302	
-0.0701904	
-0.0616455	
-0.0646973	
-0.0628662	
-0.0576782	
-0.062561	
-0.0717163	
-0.088501	
-0.0872803	
-0.0772095	
-0.0653076	
-0.0653076	
-0.0793457	
-0.0769043	
-0.0619507	
-0.0338745	
-0.0259399	
-0.0286865	
-0.0326538	
-0.0247192	
-0.0146484	
-0.00793457	
0.00152588	
0.00518799	
0.00335693	
-0.00610352	
-0.00946045	
-0.017395	
-0.0369263	
-0.0592041	
-0.0772095	
-0.0778198	
-0.0802612	
-0.0750732	
-0.0692749	
-0.0592041	
-0.0439453	
-0.0341797	
-0.0402832	
-0.0512695	
-0.0643921	
-0.0765991	
-0.0723267	
-0.0292969	
0.110779	
0.332642	
0.574646	
0.704041	
0.635986	
0.369263	
0.0418091	
-0.19104	
-0.258179	
-0.215454	
-0.148315	
-0.101929	
-0.0854492	
-0.0839233	
-0.0817871	
-0.0741577	
-0.0671387	
-0.0650024	
-0.0808716	
-0.0805664	
-0.0701904	
-0.0662231	
-0.067749	
-0.0894165	
-0.101318	
-0.0811768	
-0.0360107	
0.00305176	
0.00701904	
-0.0253296	
-0.0534058	
-0.0592041	
-0.045166	
-0.0149536	
0.0186157	
0.0289917	
0.0137329	
-0.0112915	
-0.00457764	
0.0314331	
0.0598145	
0.072937	
0.0701904	
0.0857544	
0.11261	
0.137329	
0.15625	
0.17334	
0.188293	
0.205994	
0.213928	
0.222168	
0.230408	
0.229797	
0.232544	
0.22583	
0.213318	
0.177002	
0.132141	
0.0949097	
0.071106	
0.0439453	
0.0140381	
-0.0241089	
-0.0460815	
-0.0708008	
-0.088501	
-0.123291	
-0.145569	
-0.14801	
-0.132141	
-0.108337	
-0.105286	
-0.119019	
-0.127563	
-0.125122	
-0.114441	
-0.107422	
-0.0973511	
-0.0915527	
-0.085144	
-0.0863647	
-0.0961304	
-0.106812	
-0.113525	
-0.10437	
-0.0857544	
-0.0802612	
-0.0881958	
-0.0997925	
-0.101318	
-0.0894165	
-0.0869751	
-0.0842285	
-0.0772095	
-0.0613403	
-0.043335	
-0.043335	
-0.0598145	
-0.0622559	
-0.0653076	
-0.0643921	
-0.071106	
-0.0726318	
-0.0619507	
-0.0585938	
-0.0662231	
-0.0662231	
-0.0671387	
-0.0732422	
-0.0790405	
-0.083313	
-0.0692749	
-0.0494385	
-0.0372314	
-0.0360107	
-0.0515747	
-0.0732422	
-0.0872803	
-0.0765991	
-0.0601196	
-0.045166	
-0.0494385	
-0.0637817	
-0.0601196	
-0.0442505	
-0.0289917	
-0.0289917	
-0.0497437	
-0.0546265	
-0.0500488	
-0.0430298	
-0.0360107	
-0.0363159	
-0.038147	
-0.0491333	
-0.0476074	
-0.0286865	
-0.0100708	
-0.00488281	
-0.0137329	
-0.00488281	
0.015564	
0.0289917	
0.0299072	
0.0192261	
0.00549316	
-0.00335693	
-0.020752	
-0.0488281	
-0.0604248	
-0.0689697	
-0.0598145	
-0.0549316	
-0.0531006	
-0.0494385	
-0.0534058	
-0.062561	
-0.0741577	
-0.0708008	
-0.0640869	
-0.0366211	
0.0369263	
0.191956	
0.428162	
0.657959	
0.766296	
0.664368	
0.375977	
0.0448608	
-0.185242	
-0.252075	
-0.212402	
-0.153809	
-0.117798	
-0.0927734	
-0.0830078	
-0.078125	
-0.0787354	
-0.0698853	
-0.0592041	
-0.0518799	
-0.0561523	
-0.0564575	
-0.0540161	
-0.0521851	
-0.0592041	
-0.0634766	
-0.0524902	
-0.0341797	
-0.0170898	
-0.0192261	
-0.0302124	
-0.0292969	
-0.00946045	
0.0134277	
0.0143433	
0.000305176	
-0.00732422	
0.0109863	
0.0402832	
0.0518799	
0.0448608	
0.0430298	
0.0543213	
0.085144	
0.111694	
0.128174	
0.143738	
0.163879	
0.193481	
0.218506	
0.228577	
0.226746	
0.234985	
0.257263	
0.28717	
0.296631	
0.272217	
0.232239	
0.186157	
0.14679	
0.105896	
0.0674438	
0.0299072	
-0.00701904	
-0.0427246	
-0.0827026	
-0.105896	
-0.112	
-0.0994873	
-0.0909424	
-0.0924683	
-0.111389	
-0.119629	
-0.109253	
-0.0958252	
-0.0964355	
-0.102539	
-0.107117	
-0.10437	
-0.105286	
-0.114441	
-0.102844	
-0.0915527	
-0.0845337	
-0.10376	
-0.116882	
-0.108337	
-0.0845337	
-0.0622559	
-0.0564575	
-0.0723267	
-0.0830078	
-0.0854492	
-0.0762939	
-0.0646973	
-0.0582886	
-0.0631714	
-0.0656128	
-0.071106	
-0.0820923	
-0.0912476	
-0.106812	
-0.0918579	
-0.0622559	
-0.0314331	
-0.0256348	
-0.043335	
-0.0543213	
-0.0579834	
-0.0518799	
-0.0521851	
-0.0521851	
-0.0680542	
-0.0695801	
-0.0567627	
-0.03479	
-0.0360107	
-0.0674438	
-0.0964355	
-0.090332	
-0.0601196	
-0.0354004	
-0.027771	
-0.0366211	
-0.0454712	
-0.0509644	
-0.0515747	
-0.0604248	
-0.0527954	
-0.0418091	
-0.0259399	
-0.0286865	
-0.0491333	
-0.0622559	
-0.057373	
-0.0561523	
-0.0494385	
-0.045166	
-0.0427246	
-0.0473022	
-0.0415039	
-0.0244141	
-0.00274658	
-0.00549316	
-0.0247192	
-0.039978	
-0.0378418	
-0.0326538	
-0.020752	
-0.00732422	
0.0112915	
0.0283813	
0.0323486	
0.0375366	
0.0317383	
0.015564	
-0.00549316	
-0.0299072	
-0.0360107	
-0.0363159	
-0.032959	
-0.032959	
-0.0292969	
-0.0308228	
-0.0387573	
-0.0537109	
-0.0613403	
-0.0610352	
-0.0564575	
-0.0534058	
-0.0482178	
-0.0320435	
-0.0201416	
0.0289917	
0.155029	
0.377808	
0.619812	
0.72937	
0.611877	
0.314331	
-0.00640869	
-0.198669	
-0.239563	
-0.191345	
-0.118713	
-0.078125	
-0.0604248	
-0.0610352	
-0.057373	
-0.0509644	
-0.0558472	
-0.0653076	
-0.0735474	
-0.0601196	
-0.0466919	
-0.0408936	
-0.0396729	
-0.0396729	
-0.0296021	
-0.0238037	
-0.0357056	
-0.0350952	
-0.0241089	
0.00213623	
0.0195313	
0.0253296	
0.0131226	
0.00305176	
-0.000915527	
0.0183105	
0.0463867	
0.0579834	
0.0515747	
0.0454712	
0.0576782	
0.0814819	
0.109558	
0.135803	
0.144348	
0.157471	
0.177307	
0.22522	
0.254517	
0.255432	
0.232544	
0.231628	
0.247498	
0.253296	
0.242615	
0.22583	
0.224609	
0.209351	
0.176392	
0.135498	
0.0985718	
0.0720215	
0.0473022	
0.00579834	
-0.0338745	
-0.0527954	
-0.0695801	
-0.083313	
-0.0894165	
-0.0744629	
-0.0540161	
-0.0622559	
-0.0967407	
-0.106506	
-0.0952148	
-0.0842285	
-0.0897217	
-0.0970459	
-0.0854492	
-0.0814819	
-0.0875854	
-0.0964355	
-0.085144	
-0.0698853	
-0.0708008	
-0.0671387	
-0.057373	
-0.0317383	
-0.032959	
-0.0531006	
-0.071106	
-0.0726318	
-0.057373	
-0.0408936	
-0.039978	
-0.0524902	
-0.0567627	
-0.0521851	
-0.0308228	
-0.0231934	
-0.0402832	
-0.0549316	
-0.0482178	
-0.0234985	
-0.0189209	
-0.0323486	
-0.0500488	
-0.0473022	
-0.0335693	
-0.0296021	
-0.0222778	
-0.0271606	
-0.0259399	
-0.0302124	
-0.0372314	
-0.0415039	
-0.055542	
-0.0558472	
-0.0463867	
-0.0222778	
0.000305176	
0.00793457	
0.000915527	
-0.0180054	
-0.0244141	
-0.0167847	
0.00152588	
0.015564	
0.00396729	
0.00854492	
0.017395	
0.0302124	
0.0305176	
0.00549316	
-0.0222778	
-0.0454712	
-0.0527954	
-0.0457764	
-0.0314331	
-0.0170898	
-0.0137329	
-0.0164795	
-0.0476074	
-0.0717163	
-0.0796509	
-0.062561	
-0.0375366	
-0.0305176	
-0.0289917	
0.00183105	
0.116272	
0.317993	
0.535889	
0.644531	
0.570679	
0.320435	
0.00793457	
-0.221558	
-0.299377	
-0.257263	
-0.18219	
-0.122375	
-0.0888062	
-0.071106	
-0.0698853	
-0.067749	
-0.0613403	
-0.0454712	
-0.0332642	
-0.0262451	
-0.0411987	
-0.0518799	
-0.0491333	
-0.0305176	
-0.00671387	
-0.000305176	
0.00457764	
-0.00244141	
-0.00427246	
-0.0106812	
-0.0152588	
-0.017395	
-0.0146484	
0.00823975	
0.0360107	
0.0628662	
0.06073	
0.0476074	
0.0445557	
0.0604248	
0.083313	
0.0982666	
0.108948	
0.122681	
0.147705	
0.178223	
0.206299	
0.232849	
0.250854	
0.248718	
0.245972	
0.249939	
0.26825	
0.288696	
0.296021	
0.282288	
0.253296	
0.208435	
0.143738	
0.0860596	
0.0473022	
0.0320435	
0.0204468	
-0.0170898	
-0.0592041	
-0.0997925	
-0.110474	
-0.104065	
-0.0961304	
-0.100708	
-0.111694	
-0.124817	
-0.128784	
-0.117188	
-0.111084	
-0.100708	
-0.100403	
-0.111084	
-0.116577	
-0.12085	
-0.102234	
-0.09552	
-0.10498	
-0.119934	
-0.123291	
-0.111084	
-0.0860596	
-0.0692749	
-0.050354	
-0.0515747	
-0.065918	
-0.0863647	
-0.0881958	
-0.0756836	
-0.0604248	
-0.0601196	
-0.0668335	
-0.0671387	
-0.0622559	
-0.0552368	
-0.0708008	
-0.0823975	
-0.0756836	
-0.0686646	
-0.0595093	
-0.0570679	
-0.0656128	
-0.0717163	
-0.0778198	
-0.0823975	
-0.0793457	
-0.0820923	
-0.0820923	
-0.0769043	
-0.065918	
-0.0543213	
-0.0439453	
-0.0463867	
-0.0637817	
-0.0839233	
-0.0881958	
-0.0689697	
-0.0506592	
-0.0354004	
-0.03479	
-0.0384521	
-0.045166	
-0.0506592	
-0.0430298	
-0.0323486	
-0.00488281	
0.00549316	
0.00183105	
-0.0115967	
-0.0268555	
-0.0292969	
-0.0296021	
-0.0305176	
-0.0384521	
-0.050354	
-0.0588989	
-0.0592041	
-0.0588989	
-0.0640869	
-0.0689697	
-0.0787354	
-0.0769043	
-0.0741577	
-0.0598145	
-0.0460815	
-0.0192261	
0.0552368	
0.221863	
0.465393	
0.675049	
0.73761	
0.560303	
0.226135	
-0.0952148	
-0.246887	
-0.248718	
-0.1828	
-0.137329	
-0.0952148	
-0.0756836	
-0.0811768	
-0.101318	
-0.117493	
-0.10498	
-0.0836182	
-0.0741577	
-0.065918	
-0.0683594	
-0.0671387	
-0.0610352	
-0.06073	
-0.0543213	
-0.0494385	
-0.0405884	
-0.038147	
-0.045166	
-0.0482178	
-0.0350952	
-0.00823975	
0.00793457	
0.000915527	
-0.0158691	
-0.0180054	
-0.00793457	
0.00549316	
0.0152588	
0.03479	
0.0646973	
0.0888062	
0.102539	
0.111084	
0.13031	
0.156555	
0.179443	
0.191956	
0.196533	
0.2005	
0.204468	
0.208435	
0.217285	
0.231323	
0.231628	
0.214844	
0.176086	
0.140686	
0.111694	
0.0820923	
0.045166	
0.00732422	
-0.0280762	
-0.0515747	
-0.0811768	
-0.112	
-0.13031	
-0.132751	
-0.110474	
-0.093689	
-0.102539	
-0.115051	
-0.127869	
-0.112915	
-0.115356	
-0.121765	
-0.128174	
-0.112915	
-0.0921631	
-0.0924683	
-0.103149	
-0.10498	
-0.0994873	
-0.085144	
-0.0918579	
-0.101013	
-0.0973511	
-0.0888062	
-0.0695801	
-0.0668335	
-0.0790405	
-0.088501	
-0.0860596	
-0.0756836	
-0.0619507	
-0.0592041	
-0.065918	
-0.0695801	
-0.0723267	
-0.0619507	
-0.0552368	
-0.0454712	
-0.0460815	
-0.0469971	
-0.0509644	
-0.0494385	
-0.0439453	
-0.0405884	
-0.0500488	
-0.072937	
-0.0921631	
-0.085144	
-0.0564575	
-0.0482178	
-0.065918	
-0.0741577	
-0.0585938	
-0.0256348	
-0.0161743	
-0.0366211	
-0.0564575	
-0.0564575	
-0.0436401	
-0.0292969	
-0.0421143	
-0.0540161	
-0.0582886	
-0.0543213	
-0.0561523	
-0.0570679	
-0.0454712	
-0.0216675	
-0.017395	
-0.0250244	
-0.0411987	
-0.0390625	
-0.0213623	
-0.00213623	
0.0167847	
0.0311279	
0.0357056	
0.0271606	
0.00610352	
-0.012207	
-0.0411987	
-0.0662231	
-0.0811768	
-0.0585938	
-0.0323486	
-0.027771	
-0.0601196	
-0.0909424	
-0.0930786	
-0.0741577	
-0.050354	
-0.0442505	
-0.0558472	
-0.06073	
-0.0152588	
0.122375	
0.355225	
0.61615	
0.773621	
0.72052	
0.450745	
0.106506	
-0.152588	
-0.254517	
-0.230713	
-0.159912	
-0.11261	
-0.0997925	
-0.113831	
-0.115051	
-0.0985718	
-0.0839233	
-0.0778198	
-0.0714111	
-0.0686646	
-0.0656128	
-0.0598145	
-0.0552368	
-0.0622559	
-0.0701904	
-0.0643921	
-0.038147	
-0.0146484	
-0.0213623	
-0.0405884	
-0.0622559	
-0.0552368	
-0.03479	
-0.00701904	
0.00274658	
0.00366211	
0.00823975	
0.0350952	
0.0509644	
0.0564575	
0.050354	
0.0567627	
0.083313	
0.108032	
0.117188	
0.127258	
0.151672	
0.188599	
0.216675	
0.215454	
0.205994	
0.219116	
0.258179	
0.284119	
0.276489	
0.242004	
0.214539	
0.186768	
0.155334	
0.104065	
0.0567627	
0.0183105	
-0.0106812	
-0.0341797	
-0.0585938	
-0.0848389	
-0.113831	
-0.13031	
-0.12146	
-0.107117	
-0.0927734	
-0.10437	
-0.120544	
-0.129089	
-0.125427	
-0.109253	
-0.117188	
-0.126038	
-0.126038	
-0.0973511	
-0.0686646	
-0.0695801	
-0.0942993	
-0.12085	
-0.118408	
-0.10437	
-0.0930786	
-0.0906372	
-0.0991821	
-0.088501	
-0.0796509	
-0.0778198	
-0.0808716	
-0.0811768	
-0.065918	
-0.055542	
-0.0634766	
-0.0802612	
-0.0973511	
-0.093689	
-0.0738525	
-0.0601196	
-0.06073	
-0.062561	
-0.0521851	
-0.0363159	
-0.0332642	
-0.0509644	
-0.0744629	
-0.0845337	
-0.0787354	
-0.0619507	
-0.0488281	
-0.0558472	
-0.0836182	
-0.0921631	
-0.0854492	
-0.0692749	
-0.0613403	
-0.0588989	
-0.0561523	
-0.0466919	
-0.0531006	
-0.0512695	
-0.0482178	
-0.0585938	
-0.062561	
-0.0619507	
-0.0518799	
-0.0415039	
-0.0448608	
-0.0479126	
-0.0378418	
-0.0204468	
-0.00854492	
-0.0125122	
-0.0204468	
-0.0210571	
-0.000915527	
0.0146484	
0.0164795	
0.000915527	
-0.00976563	
-0.0189209	
-0.0271606	
-0.0537109	
-0.0631714	
-0.0650024	
-0.06073	
-0.0656128	
-0.0714111	
-0.065918	
-0.0671387	
-0.0613403	
-0.055542	
-0.0448608	
-0.0521851	
-0.0686646	
-0.0363159	
0.0860596	
0.308228	
0.562744	
0.718384	
0.702209	
0.474548	
0.14801	
-0.125732	
-0.255432	
-0.237122	
-0.176697	
-0.136414	
-0.124207	
-0.106506	
-0.078125	
-0.062561	
-0.0686646	
-0.0769043	
-0.0665283	
-0.0457764	
-0.0332642	
-0.0280762	
-0.0286865	
-0.0274658	
-0.0405884	
-0.0540161	
-0.0650024	
-0.0460815	
-0.03479	
-0.0320435	
-0.0369263	
-0.0402832	
-0.0195313	
0.012207	
0.0189209	
0.0180054	
0.00427246	
0.00823975	
0.0256348	
0.0473022	
0.0665283	
0.0869751	
0.115356	
0.124207	
0.128174	
0.140686	
0.16449	
0.2005	
0.220642	
0.228577	
0.229187	
0.232239	
0.238037	
0.246582	
0.249634	
0.225525	
0.197144	
0.175171	
0.16449	
0.143127	
0.0906372	
0.0320435	
-0.00305176	
-0.017395	
-0.0308228	
-0.0601196	
-0.0857544	
-0.104065	
-0.110474	
-0.107727	
-0.122986	
-0.119629	
-0.117188	
-0.106812	
-0.0970459	
-0.110474	
-0.113525	
-0.109863	
-0.0961304	
-0.0924683	
-0.101013	
-0.107422	
-0.0979614	
-0.0857544	
-0.0772095	
-0.0772095	
-0.0811768	
-0.0726318	
-0.0601196	
-0.0515747	
-0.0460815	
-0.0473022	
-0.0552368	
-0.0567627	
-0.0595093	
-0.0570679	
-0.0506592	
-0.0576782	
-0.0579834	
-0.06073	
-0.0628662	
-0.0531006	
-0.0463867	
-0.0283813	
-0.0363159	
-0.0442505	
-0.0558472	
-0.0601196	
-0.0704956	
-0.0738525	
-0.0720215	
-0.0497437	
-0.0439453	
-0.0479126	
-0.0552368	
-0.0527954	
-0.0384521	
-0.027771	
-0.0296021	
-0.0405884	
-0.0387573	
-0.03479	
-0.0314331	
-0.0326538	
-0.0241089	
-0.0125122	
-0.00732422	
-0.0012207	
0.00244141	
0.0210571	
0.0161743	
0.00610352	
-0.00457764	
-0.0106812	
-0.0216675	
-0.0323486	
-0.0534058	
-0.065918	
-0.0671387	
-0.0582886	
-0.0427246	
-0.0421143	
-0.0518799	
-0.0610352	
-0.0561523	
-0.0405884	
-0.0268555	
-0.0231934	
0.0210571	
0.140076	
0.349731	
0.556641	
0.657959	
0.559387	
0.280457	
-0.0415039	
-0.260925	
-0.309143	
-0.248108	
-0.164185	
-0.0915527	
-0.0497437	
-0.0363159	
-0.0561523	
-0.0732422	
-0.0720215	
-0.0479126	
-0.0268555	
-0.0198364	
-0.0335693	
-0.0552368	
-0.0518799	
-0.0369263	
-0.0140381	
-0.0137329	
-0.010376	
-0.000915527	
0.00823975	
-0.000915527	
-0.00610352	
-0.0109863	
0.00610352	
0.00976563	
0.0164795	
0.0299072	
0.0567627	
0.0717163	
0.0650024	
0.0592041	
0.062561	
0.0842285	
0.112	
0.138245	
0.164795	
0.19043	
0.205688	
0.216675	
0.230408	
0.243835	
0.258179	
0.267639	
0.271606	
0.27832	
0.282288	
0.274048	
0.239258	
0.190735	
0.143738	
0.098877	
0.062561	
0.0244141	
-0.00854492	
-0.0244141	
-0.043335	
-0.0668335	
-0.100708	
-0.116882	
-0.108948	
-0.0946045	
-0.0869751	
-0.0909424	
-0.0930786	
-0.0982666	
-0.098877	
-0.109558	
-0.115356	
-0.117188	
-0.107117	
-0.0842285	
-0.0726318	
-0.0741577	
-0.0878906	
-0.0970459	
-0.0921631	
-0.0845337	
-0.072937	
-0.0671387	
-0.0619507	
-0.0634766	
-0.0512695	
-0.0445557	
-0.0436401	
-0.0622559	
-0.0686646	
-0.0506592	
-0.0158691	
-0.0125122	
-0.0363159	
-0.0561523	
-0.0683594	
-0.0634766	
-0.0628662	
-0.0674438	
-0.0689697	
-0.0698853	
-0.0613403	
-0.0524902	
-0.0518799	
-0.0637817	
-0.0683594	
-0.0595093	
-0.0378418	
-0.0323486	
-0.0393677	
-0.0521851	
-0.0448608	
-0.0262451	
-0.00518799	
-0.00183105	
-0.0204468	
-0.0448608	
-0.0561523	
-0.032959	
0.00854492	
0.0314331	
0.0231934	
0.00183105	
-0.0311279	
-0.0445557	
-0.0579834	
-0.0592041	
-0.055542	
-0.0543213	
-0.0518799	
-0.0469971	
-0.0448608	
-0.0473022	
-0.0592041	
-0.0653076	
-0.0610352	
-0.067749	
-0.0726318	
-0.0418091	
0.0701904	
0.26886	
0.507202	
0.673523	
0.682678	
0.496521	
0.191345	
-0.0814819	
-0.229492	
-0.241699	
-0.184631	
-0.116882	
-0.0723267	
-0.0561523	
-0.067749	
-0.0888062	
-0.102539	
-0.0878906	
-0.0653076	
-0.0549316	
-0.0570679	
-0.0610352	
-0.0628662	
-0.0610352	
-0.0552368	
-0.0350952	
-0.0158691	
-0.0198364	
-0.0320435	
-0.0341797	
-0.0216675	
-0.0170898	
-0.012207	
-0.0088501	
-0.00396729	
-0.00366211	
-0.00976563	
0.00335693	
0.0341797	
0.0613403	
0.072937	
0.0823975	
0.0891113	
0.100098	
0.102539	
0.112	
0.138855	
0.180054	
0.220032	
0.235596	
0.233765	
0.231018	
0.223389	
0.226746	
0.23468	
0.236816	
0.227051	
0.194702	
0.147705	
0.107117	
0.0689697	
0.0320435	
-0.00640869	
-0.0302124	
-0.0494385	
-0.0634766	
-0.0842285	
-0.0976563	
-0.098877	
-0.0997925	
-0.106812	
-0.118103	
-0.12085	
-0.105286	
-0.0939941	
-0.0875854	
-0.0918579	
-0.100403	
-0.101013	
-0.0991821	
-0.088501	
-0.0747681	
-0.0622559	
-0.0610352	
-0.0695801	
-0.0848389	
-0.0930786	
-0.0836182	
-0.0738525	
-0.0668335	
-0.0640869	
-0.0613403	
-0.0622559	
-0.0735474	
-0.083313	
-0.0723267	
-0.0543213	
-0.0393677	
-0.0363159	
-0.038147	
-0.0350952	
-0.0424194	
-0.0518799	
-0.0665283	
-0.0598145	
-0.0491333	
-0.03479	
-0.03479	
-0.0445557	
-0.0552368	
-0.0561523	
-0.0588989	
-0.0671387	
-0.0595093	
-0.0427246	
-0.0268555	
-0.0241089	
-0.032959	
-0.0354004	
-0.0323486	
-0.0344849	
-0.0344849	
-0.038147	
-0.0271606	
-0.0137329	
-0.00518799	
-0.0134277	
-0.0326538	
-0.0418091	
-0.0286865	
-0.000915527	
0.0244141	
0.0369263	
0.0369263	
0.0335693	
0.0265503	
0.0128174	
-0.00640869	
-0.0241089	
-0.0372314	
-0.043335	
-0.0534058	
-0.0543213	
-0.0466919	
-0.0375366	
-0.03479	
-0.0454712	
-0.0448608	
-0.0369263	
-0.0405884	
-0.0579834	
-0.0564575	
0.0213623	
0.207214	
0.460815	
0.694885	
0.787048	
0.664368	
0.36377	
0.0411987	
-0.159607	
-0.205078	
-0.177307	
-0.140076	
-0.117493	
-0.0827026	
-0.0588989	
-0.0531006	
-0.0689697	
-0.0704956	
-0.0680542	
-0.0488281	
-0.0485229	
-0.0582886	
-0.0637817	
-0.0643921	
-0.0448608	
-0.0259399	
-0.0213623	
-0.0262451	
-0.0228882	
-0.0186157	
-0.0146484	
-0.0140381	
-0.0125122	
0.0119019	
0.0289917	
0.0320435	
0.022583	
0.0231934	
0.038147	
0.0549316	
0.0576782	
0.0558472	
0.0698853	
0.0985718	
0.127563	
0.143433	
0.149841	
0.163574	
0.186462	
0.220032	
0.244141	
0.255127	
0.256042	
0.26062	
0.268555	
0.255127	
0.234375	
0.208435	
0.191345	
0.166016	
0.11322	
0.0604248	
0.0143433	
-0.0238037	
-0.0497437	
-0.0741577	
-0.0802612	
-0.0848389	
-0.0921631	
-0.113525	
-0.129089	
-0.128784	
-0.110779	
-0.0915527	
-0.09552	
-0.109253	
-0.112305	
-0.0894165	
-0.0714111	
-0.0735474	
-0.0991821	
-0.115356	
-0.111084	
-0.0900269	
-0.0643921	
-0.0616455	
-0.0769043	
-0.108337	
-0.118408	
-0.106201	
-0.0753784	
-0.0543213	
-0.0579834	
-0.0717163	
-0.067749	
-0.0479126	
-0.0402832	
-0.050354	
-0.0695801	
-0.0753784	
-0.071106	
-0.0634766	
-0.0613403	
-0.0646973	
-0.071106	
-0.0671387	
-0.0592041	
-0.0506592	
-0.0457764	
-0.0473022	
-0.0476074	
-0.0476074	
-0.0543213	
-0.0610352	
-0.0646973	
-0.0567627	
-0.0506592	
-0.0515747	
-0.06073	
-0.0619507	
-0.0570679	
-0.0469971	
-0.0408936	
-0.0299072	
-0.0369263	
-0.0491333	
-0.0686646	
-0.0665283	
-0.0689697	
-0.0622559	
-0.0564575	
-0.0250244	
0.00213623	
0.00152588	
-0.022583	
-0.0396729	
-0.0378418	
-0.0320435	
-0.0274658	
-0.0256348	
-0.0119019	
0.00488281	
0.015564	
0.0112915	
-0.015564	
-0.0372314	
-0.0421143	
-0.0311279	
-0.0265503	
-0.0402832	
-0.0479126	
-0.0497437	
-0.0460815	
-0.0363159	
-0.0350952	
-0.0369263	
-0.0540161	
-0.0695801	
-0.0860596	
-0.0946045	
-0.0765991	
0.0195313	
0.205383	
0.460815	
0.665894	
0.719604	
0.558167	
0.237732	
-0.0656128	
-0.24292	
-0.267334	
-0.20874	
-0.148926	
-0.102539	
-0.0823975	
-0.0778198	
-0.0772095	
-0.0808716	
-0.0799561	
-0.0891113	
-0.0857544	
-0.0753784	
-0.0619507	
-0.0598145	
-0.0662231	
-0.0704956	
-0.0668335	
-0.0460815	
-0.0323486	
-0.0222778	
-0.0241089	
-0.0228882	
-0.0177002	
-0.0262451	
-0.0387573	
-0.0482178	
-0.032959	
-0.00640869	
0.0198364	
0.0332642	
0.039978	
0.0405884	
0.0521851	
0.072937	
0.0808716	
0.0842285	
0.0997925	
0.135803	
0.169373	
0.19043	
0.195923	
0.203247	
0.209656	
0.198669	
0.198059	
0.208435	
0.229492	
0.223083	
0.186157	
0.138855	
0.105896	
0.088501	
0.067749	
0.0201416	
-0.043335	
-0.0973511	
-0.127258	
-0.12085	
-0.112	
-0.108643	
-0.118713	
-0.127869	
-0.141296	
-0.149536	
-0.150452	
-0.134277	
-0.119019	
-0.111389	
-0.11261	
-0.117798	
-0.123596	
-0.133362	
-0.133972	
-0.114746	
-0.0942993	
-0.0942993	
-0.106812	
-0.115967	
-0.104065	
-0.100708	
-0.112305	
-0.11261	
-0.0924683	
-0.0784302	
-0.0738525	
-0.0973511	
-0.0946045	
-0.083313	
-0.0704956	
-0.0830078	
-0.102539	
-0.119324	
-0.111084	
-0.0921631	
-0.0759888	
-0.0665283	
-0.0637817	
-0.0747681	
-0.0830078	
-0.0888062	
-0.0860596	
-0.0848389	
-0.0888062	
-0.0875854	
-0.0915527	
-0.0820923	
-0.0646973	
-0.0689697	
-0.0689697	
-0.0820923	
-0.0872803	
-0.0820923	
-0.0750732	
-0.0527954	
-0.0323486	
-0.0180054	
-0.0344849	
-0.0564575	
-0.0619507	
-0.0354004	
-0.0180054	
-0.0372314	
-0.0827026	
-0.115662	
-0.11261	
-0.098877	
-0.0949097	
-0.0921631	
-0.0952148	
-0.0866699	
-0.0857544	
-0.085144	
-0.0946045	
-0.0973511	
-0.0891113	
-0.0604248	
0.00427246	
0.13031	
0.328979	
0.538025	
0.628052	
0.509949	
0.223389	
-0.0888062	
-0.28717	
-0.333862	
-0.281982	
-0.211792	
-0.162659	
-0.124512	
-0.0823975	
-0.0619507	
-0.0588989	
-0.0802612	
-0.0970459	
-0.0997925	
-0.101013	
-0.101318	
-0.0994873	
-0.078125	
-0.0500488	
-0.0338745	
-0.039978	
-0.0537109	
-0.0595093	
-0.0570679	
-0.0506592	
-0.0479126	
-0.0424194	
-0.039978	
-0.03479	
-0.0262451	
-0.0119019	
0.00427246	
0.0204468	
0.0335693	
0.0335693	
0.0271606	
0.0308228	
0.0540161	
0.0991821	
0.135803	
0.155945	
0.16449	
0.168762	
0.188293	
0.211487	
0.232239	
0.234375	
0.222778	
0.213318	
0.204468	
0.194092	
0.174561	
0.158691	
0.143738	
0.0933838	
0.0131226	
-0.0445557	
-0.0619507	
-0.0640869	
-0.0863647	
-0.133362	
-0.162964	
-0.169373	
-0.159912	
-0.1474	
-0.141907	
-0.13031	
-0.126343	
-0.11322	
-0.110168	
-0.121765	
-0.131836	
-0.133362	
-0.125732	
-0.115662	
-0.117798	
-0.119629	
-0.129089	
-0.133972	
-0.128479	
-0.108337	
-0.0872803	
-0.0830078	
-0.101929	
-0.114136	
-0.104065	
-0.083313	
-0.0680542	
-0.0640869	
-0.0662231	
-0.072937	
-0.0762939	
-0.0808716	
-0.0720215	
-0.0701904	
-0.0784302	
-0.0942993	
-0.108643	
-0.109253	
-0.0915527	
-0.0698853	
-0.0537109	
-0.0521851	
-0.0509644	
-0.0561523	
-0.0598145	
-0.0720215	
-0.071106	
-0.0680542	
-0.0662231	
-0.0680542	
-0.0656128	
-0.0631714	
-0.0656128	
-0.0637817	
-0.0488281	
-0.0369263	
-0.0271606	
-0.0424194	
-0.0344849	
-0.0195313	
-0.0088501	
-0.00732422	
-0.00701904	
-0.00213623	
0.00427246	
-0.00457764	
-0.015564	
-0.0183105	
-0.0177002	
-0.0326538	
-0.0488281	
-0.0634766	
-0.0469971	
-0.0161743	
-0.00610352	
-0.0115967	
-0.0363159	
-0.0579834	
-0.0695801	
-0.0680542	
-0.0601196	
-0.0622559	
-0.071106	
-0.0692749	
-0.0088501	
0.128174	
0.342102	
0.588074	
0.746765	
0.714722	
0.453186	
0.103149	
-0.155945	
-0.246887	
-0.20874	
-0.149231	
-0.101318	
-0.0747681	
-0.0619507	
-0.071106	
-0.0878906	
-0.0878906	
-0.0747681	
-0.0622559	
-0.0640869	
-0.0775146	
-0.0775146	
-0.0567627	
-0.0302124	
-0.0137329	
-0.0222778	
-0.0454712	
-0.0579834	
-0.0405884	
-0.0119019	
0.00640869	
0.000915527	
-0.00152588	
0.0143433	
0.0274658	
0.032959	
0.0241089	
0.00976563	
0.00305176	
0.0222778	
0.0570679	
0.0949097	
0.103455	
0.0970459	
0.104675	
0.143738	
0.188904	
0.210876	
0.209351	
0.201416	
0.21759	
0.244751	
0.261841	
0.261841	
0.242615	
0.225525	
0.200806	
0.184326	
0.161743	
0.127563	
0.0741577	
0.017395	
-0.022583	
-0.0469971	
-0.0604248	
-0.0845337	
-0.100098	
-0.106201	
-0.101624	
-0.0869751	
-0.0805664	
-0.0863647	
-0.0985718	
-0.106201	
-0.103455	
-0.0836182	
-0.0823975	
-0.0909424	
-0.107117	
-0.0991821	
-0.0762939	
-0.0650024	
-0.0775146	
-0.0802612	
-0.0805664	
-0.0683594	
-0.0756836	
-0.0744629	
-0.065918	
-0.0698853	
-0.0848389	
-0.0939941	
-0.083313	
-0.065918	
-0.0567627	
-0.0540161	
-0.0497437	
-0.0476074	
-0.0476074	
-0.0546265	
-0.0592041	
-0.0564575	
-0.0506592	
-0.050354	
-0.0442505	
-0.0418091	
-0.0317383	
-0.0341797	
-0.0488281	
-0.0674438	
-0.0704956	
-0.0479126	
-0.0213623	
-0.0189209	
-0.0363159	
-0.0518799	
-0.0585938	
-0.0604248	
-0.0723267	
-0.0656128	
-0.0546265	
-0.0473022	
-0.0506592	
-0.0421143	
-0.0247192	
-0.0100708	
-0.0241089	
-0.0308228	
-0.0247192	
-0.0131226	
-0.0180054	
-0.0268555	
-0.0332642	
-0.0274658	
-0.0158691	
-0.000305176	
0.0201416	
0.0244141	
0.0177002	
0.0213623	
0.0283813	
0.0244141	
0.00457764	
-0.0195313	
-0.0366211	
-0.050354	
-0.057373	
-0.055542	
-0.0424194	
-0.0268555	
-0.0189209	
-0.0262451	
-0.0317383	
-0.0393677	
-0.0454712	
-0.0579834	
-0.0875854	
-0.0857544	
-0.00488281	
0.160522	
0.421448	
0.669556	
0.794983	
0.707703	
0.421143	
0.0845337	
-0.15686	
-0.240784	
-0.209045	
-0.133057	
-0.0698853	
-0.039978	
-0.0402832	
-0.0567627	
-0.065918	
-0.0674438	
-0.0598145	
-0.0552368	
-0.0610352	
-0.071106	
-0.0738525	
-0.0613403	
-0.038147	
-0.0228882	
-0.0119019	
-0.0119019	
-0.0177002	
-0.0146484	
0.00152588	
0.0134277	
0.012207	
-0.0012207	
-0.0128174	
-0.00579834	
0.00366211	
0.0167847	
0.0228882	
0.0369263	
0.0604248	
0.083313	
0.0994873	
0.111084	
0.122986	
0.138245	
0.149231	
0.160522	
0.189514	
0.226135	
0.249329	
0.255432	
0.248413	
0.246887	
0.26123	
0.277405	
0.274658	
0.242615	
0.195923	
0.143127	
0.106506	
0.071106	
